timestamp,ecg
0.0,-223
7.6923076923076925,-223
15.384615384615385,-134
23.076923076923077,-117
30.76923076923077,-148
38.46153846153846,-124
46.15384615384615,-91
53.84615384615385,-80
61.53846153846154,-63
69.23076923076923,-47
76.92307692307692,-42
84.61538461538461,-37
92.3076923076923,-14
100.0,21
107.6923076923077,47
115.38461538461539,58
123.07692307692308,89
130.76923076923077,139
138.46153846153845,174
146.15384615384616,197
153.84615384615384,221
161.53846153846155,233
169.23076923076923,221
176.92307692307693,197
184.6153846153846,174
192.30769230769232,134
200.0,87
207.6923076923077,35
215.3846153846154,-25
223.0769230769231,-70
230.76923076923077,-82
238.46153846153848,-91
246.15384615384616,-115
253.84615384615384,-115
261.53846153846155,-96
269.2307692307692,-91
276.9230769230769,-94
284.61538461538464,-96
292.3076923076923,-96
300.0,-87
307.6923076923077,-73
315.3846153846154,-73
323.0769230769231,-77
330.7692307692308,-63
338.46153846153845,-42
346.1538461538462,-44
353.84615384615387,-54
361.53846153846155,-37
369.2307692307692,-18
376.9230769230769,-28
384.61538461538464,-44
392.3076923076923,-35
400.0,-28
407.6923076923077,-30
415.3846153846154,-25
423.0769230769231,-21
430.7692307692308,-21
438.46153846153845,-18
446.1538461538462,-21
453.84615384615387,-23
461.53846153846155,-16
469.2307692307692,-14
476.92307692307696,-21
484.61538461538464,-25
492.3076923076923,-14
500.0,-4
507.6923076923077,-7
515.3846153846154,-14
523.0769230769231,-11
530.7692307692308,-7
538.4615384615385,-4
546.1538461538462,-4
553.8461538461538,-4
561.5384615384615,2
569.2307692307693,0
576.9230769230769,-14
584.6153846153846,-14
592.3076923076924,-4
600.0,-7
607.6923076923077,-11
615.3846153846154,-14
623.0769230769231,-28
630.7692307692308,-42
638.4615384615385,-35
646.1538461538462,-9
653.8461538461538,21
661.5384615384615,42
669.2307692307693,37
676.9230769230769,28
684.6153846153846,23
692.3076923076924,18
700.0,4
707.6923076923077,-18
715.3846153846154,-40
723.0769230769231,-68
730.7692307692308,-115
738.4615384615385,-65
746.1538461538462,310
753.8461538461538,996
761.5384615384615,1616
769.2307692307693,1691
776.9230769230769,989
784.6153846153846,30
792.3076923076924,-348
800.0,-242
807.6923076923077,-228
815.3846153846154,-235
823.0769230769231,-143
830.7692307692308,-120
838.4615384615385,-136
846.1538461538462,-106
853.8461538461539,-80
861.5384615384615,-73
869.2307692307693,-47
876.9230769230769,-25
884.6153846153846,-21
892.3076923076924,-16
900.0,4
907.6923076923077,28
915.3846153846154,54
923.0769230769231,80
930.7692307692308,110
938.4615384615385,146
946.1538461538462,181
953.8461538461539,209
961.5384615384615,219
969.2307692307693,221
976.9230769230769,228
984.6153846153846,216
992.3076923076924,176
1000.0,141
1007.6923076923077,106
1015.3846153846154,54
1023.0769230769231,2
1030.7692307692307,-23
1038.4615384615386,-37
1046.1538461538462,-56
1053.8461538461538,-63
1061.5384615384617,-58
1069.2307692307693,-56
1076.923076923077,-51
1084.6153846153848,-49
1092.3076923076924,-37
1100.0,-32
1107.6923076923076,-42
1115.3846153846155,-37
1123.076923076923,-18
1130.7692307692307,-16
1138.4615384615386,-18
1146.1538461538462,-7
1153.8461538461538,-4
1161.5384615384617,-14
1169.2307692307693,-9
1176.923076923077,4
1184.6153846153848,-7
1192.3076923076924,-9
1200.0,4
1207.6923076923076,-4
1215.3846153846155,-21
1223.076923076923,-9
1230.7692307692307,0
1238.4615384615386,0
1246.1538461538462,4
1253.8461538461538,0
1261.5384615384617,-7
1269.2307692307693,-4
1276.923076923077,-7
1284.6153846153848,-14
1292.3076923076924,-11
1300.0,-25
1307.6923076923076,-87
1315.3846153846155,-219
1323.076923076923,-353
1330.7692307692307,-407
1338.4615384615386,-386
1346.1538461538462,-322
1353.8461538461538,-226
1361.5384615384617,-124
1369.2307692307693,-63
1376.923076923077,-23
1384.6153846153848,16
1392.3076923076924,44
1400.0,56
1407.6923076923076,58
1415.3846153846155,35
1423.076923076923,4
1430.7692307692307,-9
1438.4615384615386,-18
1446.1538461538462,-16
1453.8461538461538,9
1461.5384615384617,2
1469.2307692307693,-44
1476.923076923077,-89
1484.6153846153848,-155
1492.3076923076924,-219
1500.0,-228
1507.6923076923076,-235
1515.3846153846155,-273
1523.076923076923,-308
1530.7692307692307,-301
1538.4615384615386,-23
1546.1538461538462,720
1553.8461538461538,1618
1561.5384615384617,2042
1569.2307692307693,1531
1576.923076923077,329
1584.6153846153848,-478
1592.3076923076924,-440
1600.0,-334
1607.6923076923076,-405
1615.3846153846155,-294
1623.076923076923,-139
1630.7692307692307,-94
1638.4615384615386,-18
1646.1538461538462,98
1653.8461538461538,169
1661.5384615384617,207
1669.2307692307693,235
1676.923076923077,233
1684.6153846153848,226
1692.3076923076924,254
1700.0,341
1707.6923076923078,478
1715.3846153846155,617
1723.076923076923,735
1730.7692307692307,852
1738.4615384615386,970
1746.1538461538462,1060
1753.8461538461538,1126
1761.5384615384617,1180
1769.2307692307693,1218
1776.923076923077,1246
1784.6153846153848,1243
1792.3076923076924,1156
1800.0,1027
1807.6923076923078,949
1815.3846153846155,869
1823.076923076923,725
1830.7692307692307,574
1838.4615384615386,431
1846.1538461538462,268
1853.8461538461538,115
1861.5384615384617,-14
1869.2307692307693,-150
1876.923076923077,-294
1884.6153846153848,-421
1892.3076923076924,-511
1900.0,-574
1907.6923076923078,-645
1915.3846153846155,-735
1923.076923076923,-850
1930.7692307692307,-1022
1938.4615384615386,-1248
1946.1538461538462,-1514
1953.8461538461538,-1844
1961.5384615384617,-2148
1969.2307692307693,-2294
1976.923076923077,-2304
1984.6153846153848,-2254
1992.3076923076924,-2202
2000.0,-2167
2007.6923076923078,-2118
2015.3846153846155,-2052
2023.076923076923,-1995
2030.7692307692307,-1938
2038.4615384615386,-1875
2046.1538461538462,-1816
2053.846153846154,-1755
2061.5384615384614,-1701
2069.2307692307695,-1646
2076.923076923077,-1583
2084.6153846153848,-1526
2092.3076923076924,-1481
2100.0,-1437
2107.6923076923076,-1387
2115.3846153846152,-1338
2123.0769230769233,-1298
2130.769230769231,-1269
2138.4615384615386,-1239
2146.153846153846,-1194
2153.846153846154,-1126
2161.5384615384614,-1036
2169.2307692307695,-965
2176.923076923077,-944
2184.6153846153848,-935
2192.3076923076924,-909
2200.0,-878
2207.6923076923076,-857
2215.3846153846152,-843
2223.0769230769233,-841
2230.769230769231,-864
2238.4615384615386,-883
2246.153846153846,-662
2253.846153846154,18
2261.5384615384614,888
2269.2307692307695,1300
2276.923076923077,817
2284.6153846153848,-292
2292.3076923076924,-1024
2300.0,-956
2307.6923076923076,-777
2315.3846153846152,-791
2323.0769230769233,-699
2330.769230769231,-581
2338.4615384615386,-572
2346.153846153846,-544
2353.846153846154,-482
2361.5384615384614,-461
2369.2307692307695,-442
2376.923076923077,-400
2384.6153846153848,-369
2392.3076923076924,-343
2400.0,-306
2407.6923076923076,-268
2415.3846153846152,-230
2423.0769230769233,-190
2430.769230769231,-146
2438.4615384615386,-91
2446.153846153846,-37
2453.846153846154,4
2461.5384615384614,32
2469.2307692307695,42
2476.923076923077,35
2484.6153846153848,28
2492.3076923076924,9
2500.0,-40
2507.6923076923076,-98
2515.3846153846152,-148
2523.0769230769233,-195
2530.769230769231,-235
2538.4615384615386,-247
2546.153846153846,-245
2553.846153846154,-242
2561.5384615384614,-237
2569.2307692307695,-228
2576.923076923077,-219
2584.6153846153848,-207
2592.3076923076924,-193
2600.0,-181
2607.6923076923076,-171
2615.3846153846152,-157
2623.0769230769233,-141
2630.769230769231,-122
2638.4615384615386,-110
2646.153846153846,-106
2653.846153846154,-94
2661.5384615384614,-77
2669.2307692307695,-70
2676.923076923077,-65
2684.6153846153848,-58
2692.3076923076924,-58
2700.0,-58
2707.6923076923076,-49
2715.3846153846152,-44
2723.0769230769233,-49
2730.769230769231,-47
2738.4615384615386,-44
2746.153846153846,-42
2753.846153846154,-37
2761.5384615384614,-28
2769.2307692307695,-23
2776.923076923077,-23
2784.6153846153848,-21
2792.3076923076924,-11
2800.0,-7
2807.6923076923076,-21
2815.3846153846152,-32
2823.0769230769233,-32
2830.769230769231,-35
2838.4615384615386,-32
2846.153846153846,4
2853.846153846154,58
2861.5384615384614,77
2869.2307692307695,65
2876.923076923077,44
2884.6153846153848,32
2892.3076923076924,32
2900.0,28
2907.6923076923076,7
2915.3846153846152,-28
2923.0769230769233,-80
2930.769230769231,-115
2938.4615384615386,68
2946.153846153846,695
2953.846153846154,1533
2961.5384615384614,1979
2969.2307692307695,1583
2976.923076923077,523
2984.6153846153848,-292
2992.3076923076924,-325
3000.0,-169
3007.6923076923076,-209
3015.3846153846152,-171
3023.0769230769233,-84
3030.769230769231,-98
3038.4615384615386,-96
3046.153846153846,-49
3053.846153846154,-42
3061.5384615384614,-42
3069.2307692307695,-18
3076.923076923077,4
3084.6153846153848,16
3092.3076923076924,30
3100.0,56
3107.6923076923076,80
3115.3846153846152,103
3123.0769230769233,139
3130.769230769231,176
3138.4615384615386,212
3146.153846153846,240
3153.846153846154,266
3161.5384615384614,275
3169.2307692307695,275
3176.923076923077,261
3184.6153846153848,230
3192.3076923076924,181
3200.0,129
3207.6923076923076,77
3215.3846153846152,30
3223.0769230769233,-7
3230.769230769231,-35
3238.4615384615386,-49
3246.153846153846,-56
3253.846153846154,-56
3261.5384615384614,-51
3269.2307692307695,-44
3276.923076923077,-42
3284.6153846153848,-40
3292.3076923076924,-32
3300.0,-25
3307.6923076923076,-16
3315.3846153846157,-9
3323.0769230769233,-4
3330.769230769231,2
3338.4615384615386,9
3346.153846153846,11
3353.846153846154,14
3361.5384615384614,18
3369.2307692307695,21
3376.923076923077,18
3384.6153846153848,21
3392.3076923076924,23
3400.0,25
3407.6923076923076,25
3415.3846153846157,18
3423.0769230769233,18
3430.769230769231,28
3438.4615384615386,28
3446.153846153846,25
3453.846153846154,30
3461.5384615384614,30
3469.2307692307695,25
3476.923076923077,30
3484.6153846153848,35
3492.3076923076924,32
3500.0,35
3507.6923076923076,30
3515.3846153846157,14
3523.0769230769233,7
3530.769230769231,16
3538.4615384615386,32
3546.153846153846,70
3553.846153846154,103
3561.5384615384614,106
3569.2307692307695,94
3576.923076923077,80
3584.6153846153848,65
3592.3076923076924,61
3600.0,54
3607.6923076923076,28
3615.3846153846157,-14
3623.0769230769233,-77
3630.769230769231,-51
3638.4615384615386,310
3646.153846153846,1046
3653.846153846154,1726
3661.5384615384614,1814
3669.2307692307695,1097
3676.923076923077,91
3684.6153846153848,-327
3692.3076923076924,-202
3700.0,-164
3707.6923076923076,-188
3715.3846153846157,-98
3723.0769230769233,-70
3730.769230769231,-96
3738.4615384615386,-68
3746.153846153846,-35
3753.846153846154,-30
3761.5384615384614,-18
3769.2307692307695,0
3776.923076923077,11
3784.6153846153848,28
3792.3076923076924,49
3800.0,68
3807.6923076923076,91
3815.3846153846157,120
3823.0769230769233,150
3830.769230769231,181
3838.4615384615386,219
3846.153846153846,247
3853.846153846154,261
3861.5384615384614,266
3869.2307692307695,266
3876.923076923077,242
3884.6153846153848,207
3892.3076923076924,167
3900.0,113
3907.6923076923076,56
3915.3846153846157,11
3923.0769230769233,-18
3930.769230769231,-35
3938.4615384615386,-47
3946.153846153846,-54
3953.846153846154,-56
3961.5384615384614,-54
3969.2307692307695,-49
3976.923076923077,-44
3984.6153846153848,-37
3992.3076923076924,-30
4000.0,-35
4007.6923076923076,-40
4015.3846153846157,-23
4023.0769230769233,-2
4030.769230769231,0
4038.4615384615386,4
4046.153846153846,9
4053.846153846154,9
4061.5384615384614,11
4069.2307692307695,14
4076.923076923077,7
4084.6153846153848,4
4092.3076923076924,9
4100.0,14
4107.692307692308,11
4115.384615384615,14
4123.076923076923,23
4130.7692307692305,28
4138.461538461539,23
4146.153846153847,21
4153.846153846154,28
4161.538461538462,23
4169.2307692307695,18
4176.923076923077,23
4184.615384615385,28
4192.307692307692,32
4200.0,42
4207.692307692308,37
4215.384615384615,28
4223.076923076923,28
4230.7692307692305,21
4238.461538461539,9
4246.153846153847,16
4253.846153846154,51
4261.538461538462,91
4269.2307692307695,106
4276.923076923077,91
4284.615384615385,75
4292.307692307692,63
4300.0,54
4307.692307692308,47
4315.384615384615,40
4323.076923076923,11
4330.7692307692305,-42
4338.461538461539,-80
4346.153846153847,106
4353.846153846154,718
4361.538461538462,1488
4369.2307692307695,1835
4376.923076923077,1392
4384.615384615385,395
4392.307692307692,-294
4400.0,-303
4407.692307692308,-200
4415.384615384615,-216
4423.076923076923,-141
4430.7692307692305,-65
4438.461538461539,-80
4446.153846153847,-75
4453.846153846154,-44
4461.538461538462,-37
4469.2307692307695,-28
4476.923076923077,-7
4484.615384615385,7
4492.307692307692,16
4500.0,35
4507.692307692308,51
4515.384615384615,73
4523.076923076923,101
4530.7692307692305,129
4538.461538461539,157
4546.153846153847,188
4553.846153846154,221
4561.538461538462,233
4569.2307692307695,233
4576.923076923077,233
4584.615384615385,221
4592.307692307692,186
4600.0,139
4607.692307692308,94
4615.384615384615,44
4623.076923076923,-4
4630.7692307692305,-40
4638.461538461539,-63
4646.153846153847,-73
4653.846153846154,-73
4661.538461538462,-73
4669.2307692307695,-65
4676.923076923077,-58
4684.615384615385,-54
4692.307692307692,-49
4700.0,-37
4707.692307692308,-30
4715.384615384615,-32
4723.076923076923,-28
4730.7692307692305,-18
4738.461538461539,-11
4746.153846153847,-4
4753.846153846154,-2
4761.538461538462,-2
4769.2307692307695,-4
4776.923076923077,-2
4784.615384615385,2
4792.307692307692,4
4800.0,0
4807.692307692308,-4
4815.384615384615,-2
4823.076923076923,0
4830.7692307692305,2
4838.461538461539,4
4846.153846153847,2
4853.846153846154,-4
4861.538461538462,0
4869.2307692307695,9
4876.923076923077,7
4884.615384615385,4
4892.307692307692,11
4900.0,14
4907.692307692308,11
4915.384615384615,18
4923.076923076923,21
4930.7692307692305,16
4938.461538461539,21
4946.153846153847,25
4953.846153846154,16
4961.538461538462,7
4969.2307692307695,-2
4976.923076923077,-11
4984.615384615385,-7
4992.307692307692,14
5000.0,54
5007.692307692308,89
5015.384615384615,94
5023.076923076923,77
5030.7692307692305,61
5038.461538461539,51
5046.153846153847,44
5053.846153846154,32
5061.538461538462,9
5069.2307692307695,-28
5076.923076923077,-84
5084.615384615385,-47
5092.307692307692,327
5100.0,1048
5107.692307692308,1698
5115.384615384615,1759
5123.076923076923,1046
5130.7692307692305,82
5138.461538461539,-310
5146.153846153847,-197
5153.846153846154,-171
5161.538461538462,-200
5169.2307692307695,-120
5176.923076923077,-91
5184.615384615385,-115
5192.307692307692,-84
5200.0,-51
5207.692307692308,-54
5215.384615384615,-42
5223.076923076923,-21
5230.7692307692305,-9
5238.461538461539,4
5246.153846153847,25
5253.846153846154,44
5261.538461538462,65
5269.2307692307695,91
5276.923076923077,124
5284.615384615385,157
5292.307692307692,183
5300.0,209
5307.692307692308,230
5315.384615384615,235
5323.076923076923,230
5330.7692307692305,219
5338.461538461539,195
5346.153846153847,153
5353.846153846154,108
5361.538461538462,61
5369.2307692307695,14
5376.923076923077,-14
5384.615384615385,-32
5392.307692307692,-49
5400.0,-54
5407.692307692308,-54
5415.384615384615,-54
5423.076923076923,-51
5430.7692307692305,-42
5438.461538461539,-32
5446.153846153847,-28
5453.846153846154,-25
5461.538461538462,-18
5469.2307692307695,-14
5476.923076923077,-9
5484.615384615385,-4
5492.307692307692,-4
5500.0,-2
5507.692307692308,-2
5515.384615384615,-4
5523.076923076923,-2
5530.7692307692305,0
5538.461538461539,4
5546.153846153847,4
5553.846153846154,2
5561.538461538462,4
5569.2307692307695,11
5576.923076923077,16
5584.615384615385,11
5592.307692307692,11
5600.0,11
5607.692307692308,16
5615.384615384615,23
5623.076923076923,25
5630.7692307692305,21
5638.461538461539,21
5646.153846153847,28
5653.846153846154,28
5661.538461538462,21
5669.2307692307695,18
5676.923076923077,21
5684.615384615385,25
5692.307692307692,21
5700.0,14
5707.692307692308,7
5715.384615384615,2
5723.076923076923,9
5730.7692307692305,23
5738.461538461539,42
5746.153846153847,77
5753.846153846154,98
5761.538461538462,80
5769.2307692307695,56
5776.923076923077,47
5784.615384615385,42
5792.307692307692,35
5800.0,23
5807.692307692308,-2
5815.384615384615,-54
5823.076923076923,-77
5830.7692307692305,136
5838.461538461539,727
5846.153846153847,1430
5853.846153846154,1741
5861.538461538462,1307
5869.2307692307695,348
5876.923076923077,-287
5884.615384615385,-282
5892.307692307692,-200
5900.0,-214
5907.692307692308,-136
5915.384615384615,-80
5923.076923076923,-101
5930.7692307692305,-77
5938.461538461539,-37
5946.153846153847,-32
5953.846153846154,-28
5961.538461538462,-9
5969.2307692307695,9
5976.923076923077,25
5984.615384615385,42
5992.307692307692,61
6000.0,84
6007.692307692308,108
6015.384615384615,131
6023.076923076923,164
6030.7692307692305,204
6038.461538461539,226
6046.153846153847,247
6053.846153846154,268
6061.538461538462,268
6069.2307692307695,247
6076.923076923077,223
6084.615384615385,190
6092.307692307692,141
6100.0,89
6107.692307692308,37
6115.384615384615,-11
6123.076923076923,-44
6130.7692307692305,-54
6138.461538461539,-68
6146.153846153847,-80
6153.846153846154,-77
6161.538461538462,-75
6169.2307692307695,-65
6176.923076923077,-58
6184.615384615385,-58
6192.307692307692,-58
6200.0,-51
6207.692307692308,-40
6215.384615384615,-30
6223.076923076923,-23
6230.7692307692305,-23
6238.461538461539,-23
6246.153846153847,-28
6253.846153846154,-25
6261.538461538462,-21
6269.2307692307695,-16
6276.923076923077,-4
6284.615384615385,-4
6292.307692307692,-18
6300.0,-25
6307.692307692308,-16
6315.384615384615,-9
6323.076923076923,-7
6330.7692307692305,-9
6338.461538461539,-14
6346.153846153847,-14
6353.846153846154,-11
6361.538461538462,-9
6369.2307692307695,-2
6376.923076923077,4
6384.615384615385,2
6392.307692307692,0
6400.0,4
6407.692307692308,2
6415.384615384615,-7
6423.076923076923,-18
6430.7692307692305,-25
6438.461538461539,-7
6446.153846153847,35
6453.846153846154,65
6461.538461538462,70
6469.2307692307695,68
6476.923076923077,51
6484.615384615385,30
6492.307692307692,30
6500.0,32
6507.692307692308,9
6515.384615384615,-30
6523.076923076923,-94
6530.7692307692305,-80
6538.461538461539,266
6546.153846153847,998
6553.846153846154,1675
6561.538461538462,1715
6569.2307692307695,947
6576.923076923077,-35
6584.615384615385,-400
6592.307692307692,-263
6600.0,-223
6607.692307692308,-221
6615.384615384615,-106
6623.076923076923,-68
6630.769230769231,-96
6638.461538461539,-68
6646.153846153847,-35
6653.846153846154,-28
6661.538461538462,-14
6669.2307692307695,4
6676.923076923077,18
6684.615384615385,37
6692.307692307692,56
6700.0,75
6707.692307692308,101
6715.384615384615,129
6723.076923076923,160
6730.769230769231,193
6738.461538461539,228
6746.153846153847,254
6753.846153846154,268
6761.538461538462,268
6769.2307692307695,259
6776.923076923077,235
6784.615384615385,195
6792.307692307692,141
6800.0,80
6807.692307692308,25
6815.384615384615,-14
6823.076923076923,-47
6830.769230769231,-75
6838.461538461539,-89
6846.153846153847,-87
6853.846153846154,-82
6861.538461538462,-77
6869.2307692307695,-70
6876.923076923077,-58
6884.615384615385,-54
6892.307692307692,-49
6900.0,-40
6907.692307692308,-30
6915.384615384615,-23
6923.076923076923,-18
6930.769230769231,-14
6938.461538461539,-9
6946.153846153847,-4
6953.846153846154,-2
6961.538461538462,0
6969.2307692307695,0
6976.923076923077,-2
6984.615384615385,0
6992.307692307692,4
7000.0,2
7007.692307692308,0
7015.384615384615,2
7023.076923076923,2
7030.769230769231,4
7038.461538461539,9
7046.153846153847,7
7053.846153846154,7
7061.538461538462,14
7069.2307692307695,16
7076.923076923077,16
7084.615384615385,18
7092.307692307692,21
7100.0,23
7107.692307692308,23
7115.384615384615,25
7123.076923076923,28
7130.769230769231,28
7138.461538461539,25
7146.153846153847,18
7153.846153846154,4
7161.538461538462,2
7169.2307692307695,14
7176.923076923077,32
7184.615384615385,73
7192.307692307692,101
7200.0,98
7207.692307692308,82
7215.384615384615,68
7223.076923076923,56
7230.769230769231,51
7238.461538461539,32
7246.153846153847,2
7253.846153846154,-40
7261.538461538462,-96
7269.2307692307695,-23
7276.923076923077,435
7284.615384615385,1206
7292.307692307692,1804
7300.0,1733
7307.692307692308,904
7315.384615384615,-37
7323.076923076923,-322
7330.769230769231,-190
7338.461538461539,-188
7346.153846153847,-197
7353.846153846154,-113
7361.538461538462,-98
7369.2307692307695,-115
7376.923076923077,-89
7384.615384615385,-68
7392.307692307692,-58
7400.0,-42
7407.692307692308,-28
7415.384615384615,-14
7423.076923076923,4
7430.769230769231,21
7438.461538461539,42
7446.153846153847,68
7453.846153846154,91
7461.538461538462,120
7469.2307692307695,155
7476.923076923077,188
7484.615384615385,212
7492.307692307692,228
7500.0,230
7507.692307692308,223
7515.384615384615,204
7523.076923076923,171
7530.769230769231,127
7538.461538461539,82
7546.153846153847,35
7553.846153846154,-9
7561.538461538462,-42
7569.2307692307695,-58
7576.923076923077,-68
7584.615384615385,-73
7592.307692307692,-70
7600.0,-65
7607.692307692308,-58
7615.384615384615,-51
7623.076923076923,-42
7630.769230769231,-40
7638.461538461539,-32
7646.153846153847,-30
7653.846153846154,-30
7661.538461538462,-28
7669.2307692307695,-18
7676.923076923077,-11
7684.615384615385,-11
7692.307692307692,-16
7700.0,-16
7707.692307692308,-9
7715.384615384615,-2
7723.076923076923,-2
7730.769230769231,-9
7738.461538461539,-7
7746.153846153847,0
7753.846153846154,0
7761.538461538462,-7
7769.2307692307695,-4
7776.923076923077,0
7784.615384615385,-2
7792.307692307692,0
7800.0,4
7807.692307692308,7
7815.384615384615,7
7823.076923076923,4
7830.769230769231,2
7838.461538461539,7
7846.153846153847,11
7853.846153846154,14
7861.538461538462,14
7869.2307692307695,14
7876.923076923077,11
7884.615384615385,9
7892.307692307692,9
7900.0,4
7907.692307692308,-4
7915.384615384615,-11
7923.076923076923,-16
7930.769230769231,-2
7938.461538461539,47
7946.153846153847,87
7953.846153846154,82
7961.538461538462,61
7969.2307692307695,49
7976.923076923077,42
7984.615384615385,32
7992.307692307692,18
8000.0,-9
8007.692307692308,-51
8015.384615384615,-101
8023.076923076923,-51
8030.769230769231,329
8038.461538461539,1043
8046.153846153847,1670
8053.846153846154,1710
8061.538461538462,977
8069.2307692307695,28
8076.923076923077,-320
8084.615384615385,-202
8092.307692307692,-190
8100.0,-207
8107.692307692308,-124
8115.384615384615,-103
8123.076923076923,-122
8130.769230769231,-96
8138.461538461539,-70
8146.153846153847,-68
8153.846153846154,-51
8161.538461538462,-32
8169.2307692307695,-18
8176.923076923077,-4
8184.615384615385,14
8192.307692307693,30
8200.0,54
8207.692307692309,80
8215.384615384615,106
8223.076923076924,139
8230.76923076923,174
8238.461538461539,197
8246.153846153846,216
8253.846153846154,228
8261.538461538461,226
8269.23076923077,212
8276.923076923078,186
8284.615384615385,143
8292.307692307693,96
8300.0,47
8307.692307692309,4
8315.384615384615,-30
8323.076923076924,-58
8330.76923076923,-80
8338.461538461539,-84
8346.153846153846,-84
8353.846153846154,-80
8361.538461538461,-77
8369.23076923077,-77
8376.923076923078,-77
8384.615384615385,-70
8392.307692307693,-51
8400.0,-40
8407.692307692309,-40
8415.384615384615,-42
8423.076923076924,-35
8430.76923076923,-32
8438.461538461539,-32
8446.153846153846,-28
8453.846153846154,-25
8461.538461538461,-25
8469.23076923077,-23
8476.923076923078,-21
8484.615384615385,-23
8492.307692307693,-21
8500.0,-25
8507.692307692309,-35
8515.384615384615,-30
8523.076923076924,-21
8530.76923076923,-25
8538.461538461539,-25
8546.153846153846,-14
8553.846153846154,-14
8561.538461538461,-16
8569.23076923077,-11
8576.923076923078,-4
8584.615384615385,-2
8592.307692307693,-4
8600.0,-2
8607.692307692309,-2
8615.384615384615,-4
8623.076923076924,4
8630.76923076923,9
8638.461538461539,7
8646.153846153846,4
8653.846153846154,4
8661.538461538461,2
8669.23076923077,-7
8676.923076923078,-16
8684.615384615385,-21
8692.307692307693,-21
8700.0,7
8707.692307692309,56
8715.384615384615,73
8723.076923076924,56
8730.76923076923,42
8738.461538461539,32
8746.153846153846,23
8753.846153846154,18
8761.538461538461,2
8769.23076923077,-28
8776.923076923078,-75
8784.615384615385,-110
8792.307692307693,65
8800.0,643
8807.692307692309,1378
8815.384615384615,1759
8823.076923076924,1390
8830.76923076923,421
8838.461538461539,-285
8846.153846153846,-318
8853.846153846154,-223
8861.538461538461,-247
8869.23076923077,-179
8876.923076923078,-103
8884.615384615385,-117
8892.307692307693,-106
8900.0,-65
8907.692307692309,-58
8915.384615384615,-54
8923.076923076924,-35
8930.76923076923,-21
8938.461538461539,-9
8946.153846153846,9
8953.846153846154,37
8961.538461538461,65
8969.23076923077,84
8976.923076923078,98
8984.615384615385,134
8992.307692307693,186
9000.0,230
9007.692307692309,247
9015.384615384615,249
9023.076923076924,254
9030.76923076923,242
9038.461538461539,216
9046.153846153846,183
9053.846153846154,134
9061.538461538461,77
9069.23076923077,25
9076.923076923078,-21
9084.615384615385,-61
9092.307692307693,-87
9100.0,-98
9107.692307692309,-108
9115.384615384615,-113
9123.076923076924,-103
9130.76923076923,-98
9138.461538461539,-101
9146.153846153846,-94
9153.846153846154,-80
9161.538461538461,-70
9169.23076923077,-65
9176.923076923078,-63
9184.615384615385,-56
9192.307692307693,-44
9200.0,-37
9207.692307692309,-35
9215.384615384615,-32
9223.076923076924,-28
9230.76923076923,-32
9238.461538461539,-37
9246.153846153846,-35
9253.846153846154,-30
9261.538461538461,-30
9269.23076923077,-30
9276.923076923078,-30
9284.615384615385,-30
9292.307692307693,-28
9300.0,-21
9307.692307692309,-18
9315.384615384615,-18
9323.076923076924,-23
9330.76923076923,-18
9338.461538461539,-16
9346.153846153846,-23
9353.846153846154,-32
9361.538461538461,-40
9369.23076923077,-40
9376.923076923078,-18
9384.615384615385,28
9392.307692307693,58
9400.0,47
9407.692307692309,28
9415.384615384615,18
9423.076923076924,14
9430.76923076923,9
9438.461538461539,-9
9446.153846153846,-32
9453.846153846154,-68
9461.538461538461,-131
9469.23076923077,-61
9476.923076923078,417
9484.615384615385,1213
9492.307692307693,1785
9500.0,1620
9507.692307692309,711
9515.384615384615,-179
9523.076923076924,-369
9530.76923076923,-233
9538.461538461539,-242
9546.153846153846,-226
9553.846153846154,-124
9561.538461538461,-110
9569.23076923077,-124
9576.923076923078,-94
9584.615384615385,-87
9592.307692307693,-84
9600.0,-56
9607.692307692309,-37
9615.384615384615,-30
9623.076923076924,-11
9630.76923076923,14
9638.461538461539,35
9646.153846153846,58
9653.846153846154,91
9661.538461538461,124
9669.23076923077,155
9676.923076923078,186
9684.615384615385,212
9692.307692307693,223
9700.0,226
9707.692307692309,216
9715.384615384615,188
9723.076923076924,143
9730.76923076923,89
9738.461538461539,40
9746.153846153846,-7
9753.846153846154,-49
9761.538461538461,-82
9769.23076923077,-94
9776.923076923078,-96
9784.615384615385,-96
9792.307692307693,-94
9800.0,-89
9807.692307692309,-89
9815.384615384615,-84
9823.076923076924,-75
9830.76923076923,-70
9838.461538461539,-63
9846.153846153846,-51
9853.846153846154,-49
9861.538461538461,-44
9869.23076923077,-32
9876.923076923078,-23
9884.615384615385,-23
9892.307692307693,-21
9900.0,-16
9907.692307692309,-14
9915.384615384615,-14
9923.076923076924,-14
9930.76923076923,-16
9938.461538461539,-14
9946.153846153846,-16
9953.846153846154,-18
9961.538461538461,-16
9969.23076923077,-11
9976.923076923078,-11
9984.615384615385,-11
9992.307692307693,-9
10000.0,-4
10007.692307692309,-2
10015.384615384615,-2
10023.076923076924,2
10030.76923076923,2
10038.461538461539,0
10046.153846153846,0
10053.846153846154,9
10061.538461538461,9
10069.23076923077,7
10076.923076923078,4
10084.615384615385,7
10092.307692307693,14
10100.0,11
10107.692307692309,0
10115.384615384615,-14
10123.076923076924,-21
10130.76923076923,-16
10138.461538461539,9
10146.153846153846,47
10153.846153846154,80
10161.538461538461,80
10169.23076923077,54
10176.923076923078,30
10184.615384615385,25
10192.307692307693,32
10200.0,18
10207.692307692309,-18
10215.384615384615,-65
10223.076923076924,-113
10230.76923076923,4
10238.461538461539,511
10246.153846153846,1269
10253.846153846154,1790
10261.538461538461,1625
10269.23076923077,744
10276.923076923078,-131
10284.615384615385,-313
10292.307692307693,-186
10300.0,-216
10307.692307692309,-204
10315.384615384615,-117
10323.076923076924,-117
10330.76923076923,-124
10338.461538461539,-84
10346.153846153846,-70
10353.846153846154,-77
10361.538461538461,-56
10369.23076923077,-30
10376.923076923078,-16
10384.615384615385,-2
10392.307692307693,11
10400.0,28
10407.692307692309,54
10415.384615384615,82
10423.076923076924,106
10430.76923076923,134
10438.461538461539,169
10446.153846153846,193
10453.846153846154,207
10461.538461538461,216
10469.23076923077,216
10476.923076923078,202
10484.615384615385,171
10492.307692307693,129
10500.0,77
10507.692307692309,32
10515.384615384615,-2
10523.076923076924,-37
10530.76923076923,-68
10538.461538461539,-77
10546.153846153846,-77
10553.846153846154,-77
10561.538461538461,-73
10569.23076923077,-63
10576.923076923078,-54
10584.615384615385,-54
10592.307692307693,-51
10600.0,-40
10607.692307692309,-28
10615.384615384615,-37
10623.076923076924,-37
10630.76923076923,-25
10638.461538461539,-18
10646.153846153846,-18
10653.846153846154,-18
10661.538461538461,-21
10669.23076923077,-14
10676.923076923078,-7
10684.615384615385,-14
10692.307692307693,-14
10700.0,-9
10707.692307692309,-14
10715.384615384615,-14
10723.076923076924,-7
10730.76923076923,-7
10738.461538461539,-11
10746.153846153846,-7
10753.846153846154,-4
10761.538461538461,-7
10769.23076923077,-2
10776.923076923078,2
10784.615384615385,4
10792.307692307693,4
10800.0,4
10807.692307692309,4
10815.384615384615,9
10823.076923076924,9
10830.76923076923,11
10838.461538461539,16
10846.153846153846,16
10853.846153846154,18
10861.538461538461,23
10869.23076923077,21
10876.923076923078,7
10884.615384615385,-4
10892.307692307693,-9
10900.0,-9
10907.692307692309,-4
10915.384615384615,23
10923.076923076924,54
10930.76923076923,65
10938.461538461539,63
10946.153846153846,54
10953.846153846154,37
10961.538461538461,25
10969.23076923077,21
10976.923076923078,9
10984.615384615385,-18
10992.307692307693,-65
11000.0,-87
11007.692307692309,136
11015.384615384615,749
11023.076923076924,1455
11030.76923076923,1762
11038.461538461539,1345
11046.153846153846,391
11053.846153846154,-259
11061.538461538461,-252
11069.23076923077,-167
11076.923076923078,-219
11084.615384615385,-174
11092.307692307693,-122
11100.0,-139
11107.692307692309,-117
11115.384615384615,-80
11123.076923076924,-80
11130.76923076923,-75
11138.461538461539,-56
11146.153846153846,-49
11153.846153846154,-42
11161.538461538461,-23
11169.23076923077,-2
11176.923076923078,16
11184.615384615385,42
11192.307692307693,70
11200.0,94
11207.692307692309,122
11215.384615384615,155
11223.076923076924,179
11230.76923076923,188
11238.461538461539,183
11246.153846153846,176
11253.846153846154,167
11261.538461538461,143
11269.23076923077,101
11276.923076923078,49
11284.615384615385,2
11292.307692307693,-35
11300.0,-65
11307.692307692309,-82
11315.384615384615,-89
11323.076923076924,-91
11330.76923076923,-89
11338.461538461539,-82
11346.153846153846,-70
11353.846153846154,-63
11361.538461538461,-63
11369.23076923077,-58
11376.923076923078,-58
11384.615384615385,-58
11392.307692307693,-49
11400.0,-42
11407.692307692309,-44
11415.384615384615,-44
11423.076923076924,-42
11430.76923076923,-42
11438.461538461539,-37
11446.153846153846,-35
11453.846153846154,-37
11461.538461538461,-37
11469.23076923077,-35
11476.923076923078,-30
11484.615384615385,-30
11492.307692307693,-30
11500.0,-25
11507.692307692309,-23
11515.384615384615,-21
11523.076923076924,-23
11530.76923076923,-21
11538.461538461539,-16
11546.153846153846,-21
11553.846153846154,-23
11561.538461538461,-25
11569.23076923077,-21
11576.923076923078,-11
11584.615384615385,-7
11592.307692307693,-4
11600.0,-7
11607.692307692309,-7
11615.384615384615,-4
11623.076923076924,-4
11630.76923076923,-4
11638.461538461539,2
11646.153846153846,2
11653.846153846154,0
11661.538461538461,4
11669.23076923077,4
11676.923076923078,-2
11684.615384615385,4
11692.307692307693,4
11700.0,-16
11707.692307692309,-32
11715.384615384615,-28
11723.076923076924,-25
11730.76923076923,-7
11738.461538461539,37
11746.153846153846,61
11753.846153846154,49
11761.538461538461,35
11769.23076923077,23
11776.923076923078,16
11784.615384615385,2
11792.307692307693,-25
11800.0,-47
11807.692307692309,-82
11815.384615384615,-110
11823.076923076924,82
11830.76923076923,647
11838.461538461539,1340
11846.153846153846,1701
11853.846153846154,1354
11861.538461538461,440
11869.23076923077,-226
11876.923076923078,-254
11884.615384615385,-186
11892.307692307693,-230
11900.0,-174
11907.692307692309,-117
11915.384615384615,-143
11923.076923076924,-134
11930.76923076923,-101
11938.461538461539,-94
11946.153846153846,-82
11953.846153846154,-63
11961.538461538461,-51
11969.23076923077,-30
11976.923076923078,-14
11984.615384615385,-14
11992.307692307693,2
12000.0,35
12007.692307692309,63
12015.384615384615,91
12023.076923076924,124
12030.76923076923,146
12038.461538461539,169
12046.153846153846,197
12053.846153846154,202
12061.538461538461,179
12069.23076923077,167
12076.923076923078,155
12084.615384615385,101
12092.307692307693,51
12100.0,23
12107.692307692309,-14
12115.384615384615,-47
12123.076923076924,-68
12130.76923076923,-84
12138.461538461539,-89
12146.153846153846,-96
12153.846153846154,-103
12161.538461538461,-89
12169.23076923077,-63
12176.923076923078,-61
12184.615384615385,-61
12192.307692307693,-54
12200.0,-54
12207.692307692309,-51
12215.384615384615,-40
12223.076923076924,-40
12230.76923076923,-51
12238.461538461539,-61
12246.153846153846,-49
12253.846153846154,-30
12261.538461538461,-40
12269.23076923077,-42
12276.923076923078,-30
12284.615384615385,-32
12292.307692307693,-37
12300.0,-32
12307.692307692309,-32
12315.384615384615,-35
12323.076923076924,-30
12330.76923076923,-25
12338.461538461539,-21
12346.153846153846,-14
12353.846153846154,-9
12361.538461538461,-9
12369.23076923077,-2
12376.923076923078,-4
12384.615384615385,-28
12392.307692307693,-42
12400.0,-40
12407.692307692309,-32
12415.384615384615,-25
12423.076923076924,-18
12430.76923076923,-4
12438.461538461539,7
12446.153846153846,-2
12453.846153846154,-18
12461.538461538461,-23
12469.23076923077,-23
12476.923076923078,-16
12484.615384615385,-16
12492.307692307693,-18
12500.0,-18
12507.692307692309,-18
12515.384615384615,-23
12523.076923076924,-30
12530.76923076923,-25
12538.461538461539,9
12546.153846153846,58
12553.846153846154,56
12561.538461538461,21
12569.23076923077,9
12576.923076923078,16
12584.615384615385,7
12592.307692307693,-4
12600.0,-7
12607.692307692309,-16
12615.384615384615,-63
12623.076923076924,-84
12630.76923076923,146
12638.461538461539,737
12646.153846153846,1385
12653.846153846154,1599
12661.538461538461,1097
12669.23076923077,171
12676.923076923078,-369
12684.615384615385,-325
12692.307692307693,-249
12700.0,-252
12707.692307692309,-148
12715.384615384615,-77
12723.076923076924,-103
12730.76923076923,-91
12738.461538461539,-56
12746.153846153846,-54
12753.846153846154,-44
12761.538461538461,-18
12769.23076923077,-7
12776.923076923078,-2
12784.615384615385,16
12792.307692307693,47
12800.0,87
12807.692307692309,115
12815.384615384615,129
12823.076923076924,155
12830.76923076923,204
12838.461538461539,237
12846.153846153846,247
12853.846153846154,252
12861.538461538461,259
12869.23076923077,261
12876.923076923078,247
12884.615384615385,204
12892.307692307693,146
12900.0,91
12907.692307692309,40
12915.384615384615,-16
12923.076923076924,-54
12930.76923076923,-70
12938.461538461539,-94
12946.153846153846,-117
12953.846153846154,-124
12961.538461538461,-113
12969.23076923077,-94
12976.923076923078,-82
12984.615384615385,-94
12992.307692307693,-96
13000.0,-73
13007.692307692309,-51
13015.384615384615,-47
13023.076923076924,-49
13030.76923076923,-49
13038.461538461539,-49
13046.153846153846,-49
13053.846153846154,-51
13061.538461538461,-40
13069.23076923077,-35
13076.923076923078,-65
13084.615384615385,-77
13092.307692307693,-37
13100.0,-18
13107.692307692309,-37
13115.384615384615,-47
13123.076923076924,-47
13130.76923076923,-40
13138.461538461539,-30
13146.153846153846,-30
13153.846153846154,-32
13161.538461538463,-30
13169.23076923077,-23
13176.923076923078,-14
13184.615384615385,-28
13192.307692307693,-47
13200.0,-37
13207.692307692309,-23
13215.384615384615,-32
13223.076923076924,-56
13230.76923076923,-58
13238.461538461539,-2
13246.153846153846,61
13253.846153846154,61
13261.538461538463,28
13269.23076923077,14
13276.923076923078,14
13284.615384615385,9
13292.307692307693,-4
13300.0,-21
13307.692307692309,-51
13315.384615384615,-115
13323.076923076924,-91
13330.76923076923,280
13338.461538461539,1010
13346.153846153846,1663
13353.846153846154,1703
13361.538461538463,961
13369.23076923077,-11
13376.923076923078,-391
13384.615384615385,-266
13392.307692307693,-240
13400.0,-249
13407.692307692309,-141
13415.384615384615,-103
13423.076923076924,-127
13430.76923076923,-89
13438.461538461539,-63
13446.153846153846,-73
13453.846153846154,-54
13461.538461538463,-21
13469.23076923077,-4
13476.923076923078,4
13484.615384615385,16
13492.307692307693,44
13500.0,68
13507.692307692309,73
13515.384615384615,101
13523.076923076924,160
13530.76923076923,204
13538.461538461539,212
13546.153846153846,226
13553.846153846154,252
13561.538461538463,249
13569.23076923077,221
13576.923076923078,188
13584.615384615385,143
13592.307692307693,87
13600.0,30
13607.692307692309,-21
13615.384615384615,-61
13623.076923076924,-89
13630.76923076923,-106
13638.461538461539,-110
13646.153846153846,-106
13653.846153846154,-98
13661.538461538463,-96
13669.23076923077,-91
13676.923076923078,-80
13684.615384615385,-75
13692.307692307693,-77
13700.0,-70
13707.692307692309,-54
13715.384615384615,-47
13723.076923076924,-44
13730.76923076923,-37
13738.461538461539,-28
13746.153846153846,-23
13753.846153846154,-28
13761.538461538463,-28
13769.23076923077,-23
13776.923076923078,-23
13784.615384615385,-25
13792.307692307693,-28
13800.0,-23
13807.692307692309,-21
13815.384615384615,-25
13823.076923076924,-28
13830.76923076923,-23
13838.461538461539,-16
13846.153846153846,-18
13853.846153846154,-25
13861.538461538463,-23
13869.23076923077,-11
13876.923076923078,-11
13884.615384615385,-21
13892.307692307693,-25
13900.0,-37
13907.692307692309,-49
13915.384615384615,-44
13923.076923076924,-18
13930.76923076923,25
13938.461538461539,61
13946.153846153846,58
13953.846153846154,35
13961.538461538463,18
13969.23076923077,7
13976.923076923078,7
13984.615384615385,-2
13992.307692307693,-32
14000.0,-77
14007.692307692309,-134
14015.384615384615,-87
14023.076923076924,313
14030.76923076923,1053
14038.461538461539,1693
14046.153846153846,1731
14053.846153846154,984
14061.538461538463,-11
14069.23076923077,-386
14076.923076923078,-242
14084.615384615385,-226
14092.307692307693,-259
14100.0,-160
14107.692307692309,-122
14115.384615384615,-143
14123.076923076924,-115
14130.76923076923,-91
14138.461538461539,-94
14146.153846153846,-75
14153.846153846154,-49
14161.538461538463,-37
14169.23076923077,-25
14176.923076923078,-9
14184.615384615385,11
14192.307692307693,35
14200.0,63
14207.692307692309,91
14215.384615384615,124
14223.076923076924,162
14230.76923076923,190
14238.461538461539,212
14246.153846153846,221
14253.846153846154,221
14261.538461538463,204
14269.23076923077,179
14276.923076923078,136
14284.615384615385,82
14292.307692307693,28
14300.0,-18
14307.692307692309,-54
14315.384615384615,-73
14323.076923076924,-84
14330.76923076923,-96
14338.461538461539,-101
14346.153846153846,-94
14353.846153846154,-80
14361.538461538463,-73
14369.23076923077,-73
14376.923076923078,-68
14384.615384615385,-61
14392.307692307693,-54
14400.0,-49
14407.692307692309,-49
14415.384615384615,-49
14423.076923076924,-37
14430.76923076923,-30
14438.461538461539,-23
14446.153846153846,-16
14453.846153846154,-16
14461.538461538463,-11
14469.23076923077,-9
14476.923076923078,-30
14484.615384615385,-49
14492.307692307693,-40
14500.0,-30
14507.692307692309,-30
14515.384615384615,-37
14523.076923076924,-30
14530.76923076923,-14
14538.461538461539,-4
14546.153846153846,-4
14553.846153846154,-9
14561.538461538463,-16
14569.23076923077,-18
14576.923076923078,-23
14584.615384615385,-30
14592.307692307693,-51
14600.0,-63
14607.692307692309,-42
14615.384615384615,-16
14623.076923076924,14
14630.76923076923,47
14638.461538461539,56
14646.153846153846,44
14653.846153846154,23
14661.538461538463,7
14669.23076923077,-2
14676.923076923078,-18
14684.615384615385,-44
14692.307692307693,-68
14700.0,-108
14707.692307692309,-124
14715.384615384615,124
14723.076923076924,775
14730.76923076923,1488
14738.461538461539,1733
14746.153846153846,1220
14753.846153846154,252
14761.538461538463,-332
14769.23076923077,-285
14776.923076923078,-212
14784.615384615385,-249
14792.307692307693,-174
14800.0,-124
14807.692307692309,-153
14815.384615384615,-122
14823.076923076924,-82
14830.76923076923,-87
14838.461538461539,-73
14846.153846153846,-42
14853.846153846154,-32
14861.538461538463,-35
14869.23076923077,-25
14876.923076923078,2
14884.615384615385,30
14892.307692307693,51
14900.0,80
14907.692307692309,115
14915.384615384615,143
14923.076923076924,176
14930.76923076923,212
14938.461538461539,221
14946.153846153846,204
14953.846153846154,197
14961.538461538463,193
14969.23076923077,153
14976.923076923078,94
14984.615384615385,47
14992.307692307693,7
15000.0,-37
15007.692307692309,-75
15015.384615384615,-91
15023.076923076924,-96
15030.76923076923,-98
15038.461538461539,-103
15046.153846153846,-103
15053.846153846154,-94
15061.538461538463,-87
15069.23076923077,-84
15076.923076923078,-80
15084.615384615385,-68
15092.307692307693,-65
15100.0,-68
15107.692307692309,-65
15115.384615384615,-58
15123.076923076924,-54
15130.76923076923,-49
15138.461538461539,-40
15146.153846153846,-40
15153.846153846154,-42
15161.538461538463,-42
15169.23076923077,-42
15176.923076923078,-42
15184.615384615385,-44
15192.307692307693,-42
15200.0,-44
15207.692307692309,-44
15215.384615384615,-35
15223.076923076924,-30
15230.76923076923,-30
15238.461538461539,-28
15246.153846153846,-18
15253.846153846154,-16
15261.538461538463,-21
15269.23076923077,-16
15276.923076923078,-16
15284.615384615385,-30
15292.307692307693,-37
15300.0,-42
15307.692307692309,-32
15315.384615384615,9
15323.076923076924,54
15330.76923076923,56
15338.461538461539,28
15346.153846153846,11
15353.846153846154,16
15361.538461538463,16
15369.23076923077,0
15376.923076923078,-21
15384.615384615385,-49
15392.307692307693,-103
15400.0,-127
15407.692307692309,117
15415.384615384615,758
15423.076923076924,1479
15430.76923076923,1745
15438.461538461539,1222
15446.153846153846,197
15453.846153846154,-393
15461.538461538463,-315
15469.23076923077,-228
15476.923076923078,-261
15484.615384615385,-174
15492.307692307693,-106
15500.0,-129
15507.692307692309,-117
15515.384615384615,-80
15523.076923076924,-75
15530.76923076923,-65
15538.461538461539,-44
15546.153846153846,-35
15553.846153846154,-21
15561.538461538463,2
15569.23076923077,21
15576.923076923078,35
15584.615384615385,61
15592.307692307693,98
15600.0,129
15607.692307692309,155
15615.384615384615,176
15623.076923076924,202
15630.76923076923,214
15638.461538461539,209
15646.153846153846,202
15653.846153846154,179
15661.538461538463,134
15669.23076923077,87
15676.923076923078,40
15684.615384615385,-7
15692.307692307693,-44
15700.0,-70
15707.692307692309,-91
15715.384615384615,-96
15723.076923076924,-91
15730.76923076923,-84
15738.461538461539,-87
15746.153846153846,-82
15753.846153846154,-63
15761.538461538463,-56
15769.23076923077,-58
15776.923076923078,-51
15784.615384615385,-47
15792.307692307693,-47
15800.0,-47
15807.692307692309,-40
15815.384615384615,-32
15823.076923076924,-32
15830.76923076923,-28
15838.461538461539,-23
15846.153846153846,-23
15853.846153846154,-23
15861.538461538463,-21
15869.23076923077,-23
15876.923076923078,-25
15884.615384615385,-23
15892.307692307693,-18
15900.0,-21
15907.692307692309,-25
15915.384615384615,-25
15923.076923076924,-21
15930.76923076923,-21
15938.461538461539,-18
15946.153846153846,-14
15953.846153846154,-11
15961.538461538463,-11
15969.23076923077,-9
15976.923076923078,-9
15984.615384615385,-9
15992.307692307693,-7
16000.0,-11
16007.692307692309,-23
16015.384615384615,-35
16023.076923076924,-44
16030.76923076923,-44
16038.461538461539,-21
16046.153846153846,23
16053.846153846154,56
16061.538461538463,56
16069.23076923077,40
16076.923076923078,28
16084.615384615385,11
16092.307692307693,4
16100.0,2
16107.692307692309,-16
16115.384615384615,-58
16123.076923076924,-110
16130.76923076923,-122
16138.461538461539,115
16146.153846153846,758
16153.846153846154,1505
16161.538461538463,1804
16169.23076923077,1326
16176.923076923078,325
16184.615384615385,-322
16192.307692307693,-278
16200.0,-181
16207.692307692309,-240
16215.384615384615,-188
16223.076923076924,-131
16230.76923076923,-148
16238.461538461539,-129
16246.153846153846,-91
16253.846153846154,-87
16261.538461538463,-80
16269.23076923077,-61
16276.923076923078,-51
16284.615384615385,-42
16292.307692307693,-21
16300.0,0
16307.692307692309,21
16315.384615384615,44
16323.076923076924,68
16330.76923076923,96
16338.461538461539,127
16346.153846153846,162
16353.846153846154,186
16361.538461538463,197
16369.23076923077,195
16376.923076923078,190
16384.615384615387,181
16392.30769230769,153
16400.0,106
16407.69230769231,56
16415.384615384617,7
16423.076923076922,-32
16430.76923076923,-58
16438.46153846154,-77
16446.153846153848,-89
16453.846153846156,-98
16461.53846153846,-94
16469.23076923077,-87
16476.923076923078,-82
16484.615384615387,-77
16492.30769230769,-70
16500.0,-63
16507.69230769231,-54
16515.384615384617,-51
16523.076923076922,-56
16530.76923076923,-49
16538.46153846154,-47
16546.153846153848,-47
16553.846153846156,-44
16561.53846153846,-42
16569.23076923077,-37
16576.923076923078,-37
16584.615384615387,-40
16592.30769230769,-32
16600.0,-28
16607.69230769231,-25
16615.384615384617,-30
16623.076923076922,-42
16630.76923076923,-44
16638.46153846154,-35
16646.153846153848,-25
16653.846153846156,-23
16661.53846153846,-21
16669.23076923077,-18
16676.923076923078,-18
16684.615384615387,-14
16692.30769230769,-11
16700.0,-16
16707.69230769231,-14
16715.384615384617,-9
16723.076923076922,-11
16730.76923076923,-9
16738.46153846154,-4
16746.153846153848,-4
16753.846153846156,-7
16761.53846153846,-4
16769.23076923077,-4
16776.923076923078,-4
16784.615384615387,-4
16792.30769230769,-2
16800.0,-4
16807.69230769231,-16
16815.384615384617,-35
16823.076923076922,-42
16830.76923076923,-35
16838.46153846154,-9
16846.153846153848,30
16853.846153846156,56
16861.53846153846,49
16869.23076923077,35
16876.923076923078,18
16884.615384615387,7
16892.30769230769,2
16900.0,-7
16907.69230769231,-37
16915.384615384617,-82
16923.076923076922,-129
16930.76923076923,-37
16938.46153846154,414
16946.153846153848,1137
16953.846153846156,1684
16961.53846153846,1597
16969.23076923077,782
16976.923076923078,-110
16984.615384615387,-339
16992.30769230769,-207
17000.0,-226
17007.69230769231,-228
17015.384615384617,-150
17023.076923076922,-153
17030.76923076923,-150
17038.46153846154,-101
17046.153846153848,-91
17053.846153846156,-98
17061.53846153846,-68
17069.23076923077,-47
17076.923076923078,-47
17084.615384615387,-37
17092.30769230769,-16
17100.0,-4
17107.69230769231,11
17115.384615384617,40
17123.076923076922,61
17130.76923076923,89
17138.46153846154,127
17146.153846153848,155
17153.846153846156,169
17161.53846153846,186
17169.23076923077,197
17176.923076923078,195
17184.615384615387,169
17192.30769230769,127
17200.0,82
17207.69230769231,40
17215.384615384617,2
17223.076923076922,-32
17230.76923076923,-65
17238.46153846154,-89
17246.153846153848,-98
17253.846153846156,-96
17261.53846153846,-94
17269.23076923077,-91
17276.923076923078,-87
17284.615384615387,-80
17292.30769230769,-77
17300.0,-75
17307.69230769231,-68
17315.384615384617,-63
17323.076923076922,-63
17330.76923076923,-61
17338.46153846154,-51
17346.153846153848,-47
17353.846153846156,-47
17361.53846153846,-47
17369.23076923077,-47
17376.923076923078,-51
17384.615384615387,-51
17392.30769230769,-44
17400.0,-40
17407.69230769231,-44
17415.384615384617,-42
17423.076923076922,-35
17430.76923076923,-37
17438.46153846154,-35
17446.153846153848,-30
17453.846153846156,-30
17461.53846153846,-32
17469.23076923077,-32
17476.923076923078,-30
17484.615384615387,-25
17492.30769230769,-23
17500.0,-25
17507.69230769231,-30
17515.384615384617,-28
17523.076923076922,-18
17530.76923076923,-14
17538.46153846154,-14
17546.153846153848,-11
17553.846153846156,-11
17561.53846153846,-14
17569.23076923077,-9
17576.923076923078,-2
17584.615384615387,-2
17592.30769230769,-4
17600.0,-2
17607.69230769231,0
17615.384615384617,0
17623.076923076922,-7
17630.76923076923,-9
17638.46153846154,-14
17646.153846153848,-23
17653.846153846156,-30
17661.53846153846,-25
17669.23076923077,-4
17676.923076923078,32
17684.615384615387,58
17692.30769230769,54
17700.0,28
17707.69230769231,14
17715.384615384617,14
17723.076923076922,14
17730.76923076923,-4
17738.46153846154,-32
17746.153846153848,-63
17753.846153846156,-96
17761.53846153846,40
17769.23076923077,539
17776.923076923078,1208
17784.615384615387,1602
17792.30769230769,1342
17800.0,475
17807.69230769231,-237
17815.384615384617,-303
17823.076923076922,-202
17830.76923076923,-233
17838.46153846154,-181
17846.153846153848,-103
17853.846153846156,-115
17861.53846153846,-113
17869.23076923077,-80
17876.923076923078,-75
17884.615384615387,-70
17892.30769230769,-49
17900.0,-35
17907.69230769231,-25
17915.384615384617,-7
17923.076923076922,11
17930.76923076923,28
17938.46153846154,54
17946.153846153848,80
17953.846153846156,103
17961.53846153846,131
17969.23076923077,162
17976.923076923078,183
17984.615384615387,197
17992.30769230769,204
18000.0,202
18007.69230769231,188
18015.384615384617,167
18023.076923076922,139
18030.76923076923,96
18038.46153846154,49
18046.153846153848,2
18053.846153846156,-35
18061.53846153846,-56
18069.23076923077,-70
18076.923076923078,-77
18084.615384615387,-80
18092.30769230769,-77
18100.0,-70
18107.69230769231,-65
18115.384615384617,-58
18123.076923076922,-49
18130.76923076923,-47
18138.46153846154,-47
18146.153846153848,-44
18153.846153846156,-37
18161.53846153846,-30
18169.23076923077,-28
18176.923076923078,-32
18184.615384615387,-30
18192.30769230769,-28
18200.0,-28
18207.69230769231,-28
18215.384615384617,-28
18223.076923076922,-32
18230.76923076923,-30
18238.46153846154,-25
18246.153846153848,-28
18253.846153846156,-32
18261.53846153846,-30
18269.23076923077,-28
18276.923076923078,-30
18284.615384615387,-28
18292.30769230769,-25
18300.0,-25
18307.69230769231,-23
18315.384615384617,-21
18323.076923076922,-18
18330.76923076923,-16
18338.46153846154,-16
18346.153846153848,-14
18353.846153846156,-14
18361.53846153846,-16
18369.23076923077,-14
18376.923076923078,-11
18384.615384615387,-9
18392.30769230769,-4
18400.0,-4
18407.69230769231,-7
18415.384615384617,-2
18423.076923076922,0
18430.76923076923,-7
18438.46153846154,-4
18446.153846153848,2
18453.846153846156,4
18461.53846153846,4
18469.23076923077,4
18476.923076923078,-2
18484.615384615387,-18
18492.30769230769,-28
18500.0,-30
18507.69230769231,-25
18515.384615384617,0
18523.076923076922,42
18530.76923076923,56
18538.46153846154,42
18546.153846153848,28
18553.846153846156,18
18561.53846153846,11
18569.23076923077,9
18576.923076923078,-9
18584.615384615387,-42
18592.30769230769,-87
18600.0,-101
18607.69230769231,122
18615.384615384617,718
18623.076923076922,1406
18630.76923076923,1682
18638.46153846154,1220
18646.153846153848,273
18653.846153846156,-322
18661.53846153846,-303
18669.23076923077,-233
18676.923076923078,-249
18684.615384615387,-162
18692.30769230769,-108
18700.0,-131
18707.69230769231,-115
18715.384615384617,-82
18723.076923076922,-75
18730.76923076923,-63
18738.46153846154,-47
18746.153846153848,-37
18753.846153846156,-21
18761.53846153846,2
18769.23076923077,16
18776.923076923078,32
18784.615384615387,63
18792.30769230769,98
18800.0,124
18807.69230769231,150
18815.384615384617,176
18823.076923076922,204
18830.76923076923,221
18838.46153846154,219
18846.153846153848,214
18853.846153846156,204
18861.53846153846,181
18869.23076923077,141
18876.923076923078,84
18884.615384615387,32
18892.30769230769,-11
18900.0,-51
18907.69230769231,-80
18915.384615384617,-96
18923.076923076922,-108
18930.76923076923,-108
18938.46153846154,-101
18946.153846153848,-94
18953.846153846156,-94
18961.53846153846,-91
18969.23076923077,-84
18976.923076923078,-75
18984.615384615387,-65
18992.30769230769,-63
19000.0,-58
19007.69230769231,-47
19015.384615384617,-40
19023.076923076922,-40
19030.76923076923,-42
19038.46153846154,-44
19046.153846153848,-42
19053.846153846156,-40
19061.53846153846,-44
19069.23076923077,-49
19076.923076923078,-49
19084.615384615387,-51
19092.30769230769,-49
19100.0,-44
19107.69230769231,-42
19115.384615384617,-42
19123.076923076922,-44
19130.76923076923,-40
19138.46153846154,-35
19146.153846153848,-35
19153.846153846156,-35
19161.53846153846,-30
19169.23076923077,-35
19176.923076923078,-40
19184.615384615387,-30
19192.30769230769,-21
19200.0,-25
19207.69230769231,-23
19215.384615384617,-16
19223.076923076922,-16
19230.76923076923,-21
19238.46153846154,-23
19246.153846153848,-28
19253.846153846156,-30
19261.53846153846,-40
19269.23076923077,-35
19276.923076923078,7
19284.615384615387,49
19292.30769230769,51
19300.0,30
19307.69230769231,14
19315.384615384617,7
19323.076923076922,9
19330.76923076923,4
19338.46153846154,-16
19346.153846153848,-51
19353.846153846156,-101
19361.53846153846,-63
19369.23076923077,303
19376.923076923078,1010
19384.615384615387,1602
19392.30769230769,1569
19400.0,808
19407.69230769231,-94
19415.384615384617,-400
19423.076923076922,-282
19430.76923076923,-259
19438.46153846154,-242
19446.153846153848,-129
19453.846153846156,-91
19461.53846153846,-110
19469.23076923077,-80
19476.923076923078,-51
19484.615384615387,-54
19492.30769230769,-40
19500.0,-16
19507.69230769231,-2
19515.384615384617,9
19523.076923076922,30
19530.76923076923,54
19538.46153846154,73
19546.153846153848,96
19553.846153846156,129
19561.53846153846,171
19569.23076923077,209
19576.923076923078,235
19584.615384615387,249
19592.30769230769,261
19600.0,261
19607.69230769231,247
19615.384615384617,221
19623.076923076922,176
19630.76923076923,117
19638.46153846154,58
19646.153846153848,4
19653.846153846156,-47
19661.53846153846,-82
19669.23076923077,-101
19676.923076923078,-113
19684.615384615387,-120
19692.30769230769,-113
19700.0,-106
19707.69230769231,-106
19715.384615384617,-106
19723.076923076922,-94
19730.76923076923,-80
19738.46153846154,-73
19746.153846153848,-63
19753.846153846156,-54
19761.53846153846,-51
19769.23076923077,-49
19776.923076923078,-40
19784.615384615387,-30
19792.30769230769,-30
19800.0,-35
19807.69230769231,-32
19815.384615384617,-32
19823.076923076922,-37
19830.76923076923,-40
19838.46153846154,-35
19846.153846153848,-35
19853.846153846156,-40
19861.53846153846,-40
19869.23076923077,-32
19876.923076923078,-30
19884.615384615387,-28
19892.30769230769,-25
19900.0,-23
19907.69230769231,-23
19915.384615384617,-23
19923.076923076922,-16
19930.76923076923,-9
19938.46153846154,-11
19946.153846153848,-14
19953.846153846156,-9
19961.53846153846,-9
19969.23076923077,-11
19976.923076923078,-14
19984.615384615387,-25
19992.30769230769,-37
20000.0,-37
20007.69230769231,-25
20015.384615384617,4
20023.076923076922,44
20030.76923076923,54
20038.46153846154,40
20046.153846153848,28
20053.846153846156,16
20061.53846153846,4
20069.23076923077,-2
20076.923076923078,-25
20084.615384615387,-65
20092.30769230769,-120
20100.0,-134
20107.69230769231,127
20115.384615384617,784
20123.076923076922,1510
20130.76923076923,1783
20138.46153846154,1295
20146.153846153848,299
20153.846153846156,-339
20161.53846153846,-303
20169.23076923077,-207
20176.923076923078,-249
20184.615384615387,-190
20192.30769230769,-131
20200.0,-153
20207.69230769231,-139
20215.384615384617,-96
20223.076923076922,-94
20230.76923076923,-89
20238.46153846154,-65
20246.153846153848,-56
20253.846153846156,-51
20261.53846153846,-32
20269.23076923077,-4
20276.923076923078,16
20284.615384615387,32
20292.30769230769,61
20300.0,98
20307.69230769231,136
20315.384615384617,167
20323.076923076922,190
20330.76923076923,207
20338.46153846154,216
20346.153846153848,209
20353.846153846156,188
20361.53846153846,157
20369.23076923077,113
20376.923076923078,61
20384.615384615387,16
20392.30769230769,-28
20400.0,-63
20407.69230769231,-82
20415.384615384617,-89
20423.076923076922,-98
20430.76923076923,-101
20438.46153846154,-94
20446.153846153848,-87
20453.846153846156,-75
20461.53846153846,-70
20469.23076923077,-70
20476.923076923078,-68
20484.615384615387,-63
20492.30769230769,-56
20500.0,-49
20507.69230769231,-49
20515.384615384617,-47
20523.076923076922,-40
20530.76923076923,-40
20538.46153846154,-40
20546.153846153848,-35
20553.846153846156,-32
20561.53846153846,-32
20569.23076923077,-32
20576.923076923078,-35
20584.615384615387,-37
20592.30769230769,-32
20600.0,-32
20607.69230769231,-35
20615.384615384617,-35
20623.076923076922,-30
20630.76923076923,-30
20638.46153846154,-30
20646.153846153848,-30
20653.846153846156,-35
20661.53846153846,-32
20669.23076923077,-25
20676.923076923078,-25
20684.615384615387,-28
20692.30769230769,-28
20700.0,-37
20707.69230769231,-47
20715.384615384617,-49
20723.076923076922,-40
20730.76923076923,-11
20738.46153846154,25
20746.153846153848,42
20753.846153846156,42
20761.53846153846,47
20769.23076923077,25
20776.923076923078,-9
20784.615384615387,0
20792.30769230769,2
20800.0,-54
20807.69230769231,-120
20815.384615384617,-146
20823.076923076922,-4
20830.76923076923,499
20838.46153846154,1234
20846.153846153848,1719
20853.846153846156,1519
20861.53846153846,636
20869.23076923077,-216
20876.923076923078,-393
20884.615384615387,-261
20892.30769230769,-242
20900.0,-204
20907.69230769231,-157
20915.384615384617,-176
20923.076923076922,-146
20930.76923076923,-87
20938.46153846154,-89
20946.153846153848,-96
20953.846153846156,-65
20961.53846153846,-37
20969.23076923077,-32
20976.923076923078,-30
20984.615384615387,-11
20992.30769230769,18
21000.0,42
21007.69230769231,58
21015.384615384617,84
21023.076923076922,117
21030.76923076923,153
21038.46153846154,183
21046.153846153848,202
21053.846153846156,212
21061.53846153846,226
21069.23076923077,216
21076.923076923078,174
21084.615384615387,124
21092.30769230769,84
21100.0,47
21107.69230769231,-2
21115.384615384617,-56
21123.076923076922,-91
21130.76923076923,-101
21138.46153846154,-106
21146.153846153848,-103
21153.846153846156,-106
21161.53846153846,-113
21169.23076923077,-103
21176.923076923078,-77
21184.615384615387,-63
21192.30769230769,-75
21200.0,-84
21207.69230769231,-73
21215.384615384617,-73
21223.076923076922,-73
21230.76923076923,-56
21238.46153846154,-49
21246.153846153848,-47
21253.846153846156,-49
21261.53846153846,-58
21269.23076923077,-47
21276.923076923078,-25
21284.615384615387,-44
21292.30769230769,-58
21300.0,-16
21307.69230769231,-2
21315.384615384617,-47
21323.076923076922,-82
21330.76923076923,-70
21338.46153846154,-42
21346.153846153848,-35
21353.846153846156,-30
21361.53846153846,9
21369.23076923077,-9
21376.923076923078,-80
21384.615384615387,-70
21392.30769230769,-25
21400.0,-35
21407.69230769231,-37
21415.384615384617,-11
21423.076923076922,-16
21430.76923076923,-37
21438.46153846154,-32
21446.153846153848,-14
21453.846153846156,-18
21461.53846153846,-44
21469.23076923077,-44
21476.923076923078,2
21484.615384615387,40
21492.30769230769,51
21500.0,37
21507.69230769231,7
21515.384615384617,-4
21523.076923076922,2
21530.76923076923,-2
21538.46153846154,-37
21546.153846153848,-84
21553.846153846156,-122
21561.53846153846,-94
21569.23076923077,204
21576.923076923078,862
21584.615384615387,1547
21592.30769230769,1698
21600.0,1041
21607.69230769231,77
21615.384615384617,-381
21623.076923076922,-310
21630.76923076923,-252
21638.46153846154,-263
21646.153846153848,-188
21653.846153846156,-150
21661.53846153846,-171
21669.23076923077,-139
21676.923076923078,-101
21684.615384615387,-117
21692.30769230769,-120
21700.0,-75
21707.69230769231,-35
21715.384615384617,-28
21723.076923076922,-42
21730.76923076923,-25
21738.46153846154,11
21746.153846153848,35
21753.846153846156,61
21761.53846153846,103
21769.23076923077,155
21776.923076923078,186
21784.615384615387,193
21792.30769230769,209
21800.0,221
21807.69230769231,207
21815.384615384617,176
21823.076923076922,143
21830.76923076923,122
21838.46153846154,91
21846.153846153848,25
21853.846153846156,-51
21861.53846153846,-82
21869.23076923077,-89
21876.923076923078,-103
21884.615384615387,-106
21892.30769230769,-120
21900.0,-160
21907.69230769231,-143
21915.384615384617,-96
21923.076923076922,-103
21930.76923076923,-117
21938.46153846154,-77
21946.153846153848,-44
21953.846153846156,-87
21961.53846153846,-127
21969.23076923077,-89
21976.923076923078,-49
21984.615384615387,-58
21992.30769230769,-65
22000.0,-51
22007.69230769231,-51
22015.384615384617,-80
22023.076923076922,-89
22030.76923076923,-65
22038.46153846154,-51
22046.153846153848,-56
22053.846153846156,-56
22061.53846153846,-30
22069.23076923077,-23
22076.923076923078,-75
22084.615384615387,-94
22092.30769230769,-47
22100.0,-40
22107.69230769231,-61
22115.384615384617,-51
22123.076923076922,-35
22130.76923076923,-35
22138.46153846154,-35
22146.153846153848,-37
22153.846153846156,-47
22161.53846153846,-40
22169.23076923077,-44
22176.923076923078,-70
22184.615384615387,-54
22192.30769230769,2
22200.0,25
22207.69230769231,23
22215.384615384617,14
22223.076923076922,-7
22230.76923076923,-9
22238.46153846154,-7
22246.153846153848,-37
22253.846153846156,-61
22261.53846153846,-87
22269.23076923077,-153
22276.923076923078,-32
22284.615384615387,518
22292.30769230769,1265
22300.0,1684
22307.69230769231,1394
22315.384615384617,499
22323.076923076922,-254
22330.76923076923,-379
22338.46153846154,-280
22346.153846153848,-266
22353.846153846156,-190
22361.53846153846,-127
22369.23076923077,-164
22376.923076923078,-164
22384.615384615387,-98
22392.30769230769,-82
22400.0,-89
22407.69230769231,-47
22415.384615384617,-2
22423.076923076922,-11
22430.76923076923,-32
22438.46153846154,-23
22446.153846153848,9
22453.846153846156,47
22461.53846153846,84
22469.23076923077,122
22476.923076923078,160
22484.615384615387,186
22492.30769230769,197
22500.0,223
22507.69230769231,247
22515.384615384617,221
22523.076923076922,183
22530.76923076923,155
22538.46153846154,120
22546.153846153848,75
22553.846153846156,30
22561.53846153846,-21
22569.23076923077,-80
22576.923076923078,-96
22584.615384615387,-94
22592.30769230769,-98
22600.0,-94
22607.69230769231,-98
22615.384615384617,-101
22623.076923076922,-77
22630.76923076923,-61
22638.46153846154,-70
22646.153846153848,-73
22653.846153846156,-65
22661.53846153846,-49
22669.23076923077,-49
22676.923076923078,-65
22684.615384615387,-63
22692.30769230769,-35
22700.0,-11
22707.69230769231,-32
22715.384615384617,-61
22723.076923076922,-30
22730.76923076923,-7
22738.46153846154,-35
22746.153846153848,-40
22753.846153846156,-16
22761.53846153846,-23
22769.23076923077,-37
22776.923076923078,-37
22784.615384615387,-37
22792.30769230769,-28
22800.0,-14
22807.69230769231,-25
22815.384615384617,-25
22823.076923076922,0
22830.76923076923,-11
22838.46153846154,-40
22846.153846153848,-16
22853.846153846156,9
22861.53846153846,-4
22869.23076923077,-7
22876.923076923078,7
22884.615384615387,-9
22892.30769230769,-28
22900.0,-9
22907.69230769231,-4
22915.384615384617,-14
22923.076923076922,0
22930.76923076923,11
22938.46153846154,0
22946.153846153848,-9
22953.846153846156,-23
22961.53846153846,-37
22969.23076923077,-37
22976.923076923078,-4
22984.615384615387,37
22992.30769230769,61
23000.0,68
23007.69230769231,47
23015.384615384617,9
23023.076923076922,14
23030.76923076923,21
23038.46153846154,-23
23046.153846153848,-61
23053.846153846156,-96
23061.53846153846,-131
23069.23076923077,42
23076.923076923078,612
23084.615384615387,1364
23092.30769230769,1809
23100.0,1533
23107.69230769231,596
23115.384615384617,-219
23123.076923076922,-332
23130.76923076923,-219
23138.46153846154,-261
23146.153846153848,-223
23153.846153846156,-131
23161.53846153846,-136
23169.23076923077,-164
23176.923076923078,-155
23184.615384615387,-131
23192.30769230769,-87
23200.0,-54
23207.69230769231,-68
23215.384615384617,-73
23223.076923076922,-37
23230.76923076923,-14
23238.46153846154,-16
23246.153846153848,9
23253.846153846156,56
23261.53846153846,82
23269.23076923077,101
23276.923076923078,134
23284.615384615387,176
23292.30769230769,202
23300.0,209
23307.69230769231,204
23315.384615384617,183
23323.076923076922,157
23330.76923076923,131
23338.46153846154,87
23346.153846153848,40
23353.846153846156,21
23361.53846153846,-28
23369.23076923077,-106
23376.923076923078,-101
23384.615384615387,-61
23392.30769230769,-96
23400.0,-113
23407.69230769231,-70
23415.384615384617,-77
23423.076923076922,-103
23430.76923076923,-75
23438.46153846154,-49
23446.153846153848,-77
23453.846153846156,-89
23461.53846153846,-40
23469.23076923077,-9
23476.923076923078,-65
23484.615384615387,-96
23492.30769230769,-40
23500.0,-16
23507.69230769231,-61
23515.384615384617,-68
23523.076923076922,-18
23530.76923076923,-7
23538.46153846154,-47
23546.153846153848,-65
23553.846153846156,-40
23561.53846153846,-21
23569.23076923077,-32
23576.923076923078,-40
23584.615384615387,-16
23592.30769230769,-14
23600.0,-44
23607.69230769231,-40
23615.384615384617,-11
23623.076923076922,-21
23630.76923076923,-23
23638.46153846154,-14
23646.153846153848,-42
23653.846153846156,-40
23661.53846153846,7
23669.23076923077,0
23676.923076923078,-21
23684.615384615387,4
23692.30769230769,4
23700.0,-11
23707.69230769231,7
23715.384615384617,-7
23723.076923076922,-42
23730.76923076923,-2
23738.46153846154,44
23746.153846153848,0
23753.846153846156,-51
23761.53846153846,-42
23769.23076923077,25
23776.923076923078,98
23784.615384615387,87
23792.30769230769,25
23800.0,14
23807.69230769231,35
23815.384615384617,37
23823.076923076922,14
23830.76923076923,-37
23838.46153846154,-70
23846.153846153848,-77
23853.846153846156,-77
23861.53846153846,75
23869.23076923077,537
23876.923076923078,1206
23884.615384615387,1696
23892.30769230769,1550
23900.0,720
23907.69230769231,-117
23915.384615384617,-329
23923.076923076922,-230
23930.76923076923,-263
23938.46153846154,-230
23946.153846153848,-115
23953.846153846156,-131
23961.53846153846,-157
23969.23076923077,-96
23976.923076923078,-84
23984.615384615387,-122
23992.30769230769,-98
24000.0,-28
24007.69230769231,-28
24015.384615384617,-49
24023.076923076922,7
24030.76923076923,4
24038.46153846154,-44
24046.153846153848,49
24053.846153846156,146
24061.53846153846,103
24069.23076923077,98
24076.923076923078,188
24084.615384615387,216
24092.30769230769,169
24100.0,179
24107.69230769231,223
24115.384615384617,212
24123.076923076922,148
24130.76923076923,77
24138.46153846154,42
24146.153846153848,16
24153.846153846156,-40
24161.53846153846,-68
24169.23076923077,-75
24176.923076923078,-120
24184.615384615387,-131
24192.30769230769,-94
24200.0,-101
24207.69230769231,-103
24215.384615384617,-51
24223.076923076922,-32
24230.76923076923,-84
24238.46153846154,-110
24246.153846153848,-75
24253.846153846156,-68
24261.53846153846,-73
24269.23076923077,-49
24276.923076923078,-51
24284.615384615387,-70
24292.30769230769,-61
24300.0,-37
24307.69230769231,-32
24315.384615384617,-49
24323.076923076922,-40
24330.76923076923,-7
24338.46153846154,-18
24346.153846153848,-54
24353.846153846156,-61
24361.53846153846,-37
24369.23076923077,-4
24376.923076923078,-23
24384.615384615387,-80
24392.30769230769,-75
24400.0,-23
24407.69230769231,-14
24415.384615384617,-28
24423.076923076922,-23
24430.76923076923,-4
24438.46153846154,16
24446.153846153848,-2
24453.846153846156,-54
24461.53846153846,-47
24469.23076923077,-4
24476.923076923078,9
24484.615384615387,16
24492.30769230769,23
24500.0,-4
24507.69230769231,-30
24515.384615384617,2
24523.076923076922,28
24530.76923076923,4
24538.46153846154,-47
24546.153846153848,-82
24553.846153846156,-44
24561.53846153846,51
24569.23076923077,96
24576.923076923078,44
24584.615384615387,21
24592.30769230769,70
24600.0,54
24607.69230769231,-11
24615.384615384617,-21
24623.076923076922,-11
24630.76923076923,-25
24638.46153846154,-68
24646.153846153848,-120
24653.846153846156,-11
24661.53846153846,447
24669.23076923077,1130
24676.923076923078,1620
24684.615384615387,1496
24692.30769230769,711
24700.0,-82
24707.69230769231,-301
24715.384615384617,-235
24723.076923076922,-237
24730.76923076923,-207
24738.46153846154,-136
24746.153846153848,-136
24753.846153846156,-143
24761.53846153846,-108
24769.23076923077,-98
24776.923076923078,-94
24784.615384615387,-51
24792.30769230769,-25
24800.0,-56
24807.69230769231,-73
24815.384615384617,-21
24823.076923076922,11
24830.76923076923,32
24838.46153846154,89
24846.153846153848,96
24853.846153846156,54
24861.53846153846,96
24869.23076923077,183
24876.923076923078,193
24884.615384615387,169
24892.30769230769,197
24900.0,221
24907.69230769231,162
24915.384615384617,110
24923.076923076922,117
24930.76923076923,108
24938.46153846154,49
24946.153846153848,-37
24953.846153846156,-98
24961.53846153846,-96
24969.23076923077,-84
24976.923076923078,-98
24984.615384615387,-91
24992.30769230769,-63
25000.0,-65
25007.69230769231,-77
25015.384615384617,-47
25023.076923076922,-51
25030.76923076923,-108
25038.46153846154,-96
25046.153846153848,-44
25053.846153846156,-42
25061.53846153846,-47
25069.23076923077,-23
25076.923076923078,-9
25084.615384615387,-35
25092.30769230769,-63
25100.0,-58
25107.69230769231,-49
25115.384615384617,-47
25123.076923076922,-30
25130.76923076923,-16
25138.46153846154,-40
25146.153846153848,-51
25153.846153846156,-35
25161.53846153846,-28
25169.23076923077,-16
25176.923076923078,0
25184.615384615387,-18
25192.30769230769,-30
25200.0,-21
25207.69230769231,-21
25215.384615384617,-25
25223.076923076922,-14
25230.76923076923,9
25238.46153846154,23
25246.153846153848,4
25253.846153846156,-35
25261.53846153846,-14
25269.23076923077,25
25276.923076923078,2
25284.615384615387,-25
25292.30769230769,-16
25300.0,-11
25307.69230769231,0
25315.384615384617,11
25323.076923076922,16
25330.76923076923,49
25338.46153846154,94
25346.153846153848,77
25353.846153846156,7
25361.53846153846,-11
25369.23076923077,23
25376.923076923078,18
25384.615384615387,-9
25392.30769230769,-18
25400.0,-65
25407.69230769231,-89
25415.384615384617,143
25423.076923076922,711
25430.76923076923,1333
25438.46153846154,1554
25446.153846153848,1071
25453.846153846156,202
25461.53846153846,-275
25469.23076923077,-230
25476.923076923078,-202
25484.615384615387,-237
25492.30769230769,-129
25500.0,-68
25507.69230769231,-115
25515.384615384617,-115
25523.076923076922,-80
25530.76923076923,-68
25538.46153846154,-61
25546.153846153848,-32
25553.846153846156,-2
25561.53846153846,-9
25569.23076923077,-11
25576.923076923078,18
25584.615384615387,51
25592.30769230769,73
25600.0,96
25607.69230769231,124
25615.384615384617,155
25623.076923076922,183
25630.76923076923,193
25638.46153846154,209
25646.153846153848,228
25653.846153846156,204
25661.53846153846,164
25669.23076923077,155
25676.923076923078,146
25684.615384615387,115
25692.30769230769,70
25700.0,2
25707.69230769231,-56
25715.384615384617,-73
25723.076923076922,-61
25730.76923076923,-56
25738.46153846154,-80
25746.153846153848,-91
25753.846153846156,-68
25761.53846153846,-49
25769.23076923077,-49
25776.923076923078,-47
25784.615384615387,-44
25792.30769230769,-54
25800.0,-54
25807.69230769231,-42
25815.384615384617,-47
25823.076923076922,-49
25830.76923076923,-32
25838.46153846154,-21
25846.153846153848,-21
25853.846153846156,-23
25861.53846153846,-37
25869.23076923077,-54
25876.923076923078,-49
25884.615384615387,-35
25892.30769230769,-44
25900.0,-54
25907.69230769231,-37
25915.384615384617,-21
25923.076923076922,-23
25930.76923076923,-35
25938.46153846154,-30
25946.153846153848,-18
25953.846153846156,-16
25961.53846153846,-9
25969.23076923077,-21
25976.923076923078,-44
25984.615384615387,-32
25992.30769230769,-11
26000.0,-11
26007.69230769231,-23
26015.384615384617,-40
26023.076923076922,-35
26030.76923076923,-18
26038.46153846154,-11
26046.153846153848,21
26053.846153846156,56
26061.53846153846,28
26069.23076923077,2
26076.923076923078,16
26084.615384615387,16
26092.30769230769,-4
26100.0,-16
26107.69230769231,-21
26115.384615384617,-42
26123.076923076922,-94
26130.76923076923,-108
26138.46153846154,124
26146.153846153848,669
26153.846153846156,1241
26161.53846153846,1463
26169.23076923077,1041
26176.923076923078,209
26184.615384615387,-280
26192.30769230769,-263
26200.0,-223
26207.69230769231,-223
26215.384615384617,-139
26223.076923076922,-113
26230.76923076923,-141
26238.46153846154,-115
26246.153846153848,-80
26253.846153846156,-80
26261.53846153846,-70
26269.23076923077,-49
26276.923076923078,-47
26284.615384615387,-30
26292.30769230769,2
26300.0,4
26307.69230769231,2
26315.384615384617,40
26323.076923076926,82
26330.76923076923,106
26338.46153846154,122
26346.153846153848,136
26353.846153846156,153
26361.53846153846,176
26369.23076923077,193
26376.923076923078,188
26384.615384615387,157
26392.30769230769,124
26400.0,103
26407.69230769231,70
26415.384615384617,28
26423.076923076926,-4
26430.76923076923,-49
26438.46153846154,-91
26446.153846153848,-98
26453.846153846156,-96
26461.53846153846,-117
26469.23076923077,-131
26476.923076923078,-110
26484.615384615387,-89
26492.30769230769,-89
26500.0,-77
26507.69230769231,-63
26515.384615384617,-63
26523.076923076926,-61
26530.76923076923,-73
26538.46153846154,-89
26546.153846153848,-80
26553.846153846156,-65
26561.53846153846,-65
26569.23076923077,-51
26576.923076923078,-47
26584.615384615387,-58
26592.30769230769,-56
26600.0,-54
26607.69230769231,-68
26615.384615384617,-70
26623.076923076926,-61
26630.76923076923,-51
26638.46153846154,-51
26646.153846153848,-56
26653.846153846156,-56
26661.53846153846,-44
26669.23076923077,-30
26676.923076923078,-30
26684.615384615387,-44
26692.30769230769,-51
26700.0,-61
26707.69230769231,-68
26715.384615384617,-51
26723.076923076926,-56
26730.76923076923,-77
26738.46153846154,-32
26746.153846153848,35
26753.846153846156,32
26761.53846153846,4
26769.23076923077,-9
26776.923076923078,-25
26784.615384615387,-37
26792.30769230769,-63
26800.0,-98
26807.69230769231,-122
26815.384615384617,-141
26823.076923076926,4
26830.76923076923,511
26838.46153846154,1163
26846.153846153848,1484
26853.846153846156,1144
26861.53846153846,308
26869.23076923077,-278
26876.923076923078,-303
26884.615384615387,-249
26892.30769230769,-273
26900.0,-195
26907.69230769231,-131
26915.384615384617,-153
26923.076923076926,-150
26930.76923076923,-122
26938.46153846154,-101
26946.153846153848,-91
26953.846153846156,-96
26961.53846153846,-82
26969.23076923077,-51
26976.923076923078,-21
26984.615384615387,-2
26992.30769230769,0
27000.0,18
27007.69230769231,61
27015.384615384617,87
27023.076923076926,110
27030.76923076923,143
27038.46153846154,164
27046.153846153848,169
27053.846153846156,164
27061.53846153846,167
27069.23076923077,176
27076.923076923078,146
27084.615384615387,101
27092.30769230769,77
27100.0,40
27107.69230769231,-21
27115.384615384617,-68
27123.076923076926,-91
27130.76923076923,-101
27138.46153846154,-113
27146.153846153848,-113
27153.846153846156,-98
27161.53846153846,-96
27169.23076923077,-103
27176.923076923078,-91
27184.615384615387,-73
27192.30769230769,-87
27200.0,-101
27207.69230769231,-77
27215.384615384617,-51
27223.076923076926,-68
27230.76923076923,-87
27238.46153846154,-70
27246.153846153848,-47
27253.846153846156,-51
27261.53846153846,-58
27269.23076923077,-56
27276.923076923078,-68
27284.615384615387,-75
27292.30769230769,-63
27300.0,-47
27307.69230769231,-40
27315.384615384617,-49
27323.076923076926,-65
27330.76923076923,-56
27338.46153846154,-42
27346.153846153848,-40
27353.846153846156,-42
27361.53846153846,-63
27369.23076923077,-75
27376.923076923078,-68
27384.615384615387,-61
27392.30769230769,-44
27400.0,0
27407.69230769231,35
27415.384615384617,44
27423.076923076926,32
27430.76923076923,-2
27438.46153846154,-23
27446.153846153848,-4
27453.846153846156,7
27461.53846153846,-35
27469.23076923077,-113
27476.923076923078,-160
27484.615384615387,-23
27492.30769230769,473
27500.0,1203
27507.69230769231,1679
27515.384615384617,1430
27523.076923076926,520
27530.76923076923,-259
27538.46153846154,-372
27546.153846153848,-254
27553.846153846156,-278
27561.53846153846,-230
27569.23076923077,-115
27576.923076923078,-101
27584.615384615387,-134
27592.30769230769,-120
27600.0,-80
27607.69230769231,-54
27615.384615384617,-51
27623.076923076926,-42
27630.76923076923,-18
27638.46153846154,-4
27646.153846153848,14
27653.846153846156,51
27661.53846153846,80
27669.23076923077,91
27676.923076923078,117
27684.615384615387,169
27692.30769230769,204
27700.0,207
27707.69230769231,214
27715.384615384617,221
27723.076923076926,219
27730.76923076923,214
27738.46153846154,195
27746.153846153848,143
27753.846153846156,82
27761.53846153846,49
27769.23076923077,18
27776.923076923078,-28
27784.615384615387,-75
27792.30769230769,-98
27800.0,-89
27807.69230769231,-87
27815.384615384617,-96
27823.076923076926,-106
27830.76923076923,-115
27838.46153846154,-91
27846.153846153848,-54
27853.846153846156,-37
27861.53846153846,-54
27869.23076923077,-63
27876.923076923078,-44
27884.615384615387,-42
27892.30769230769,-70
27900.0,-65
27907.69230769231,-35
27915.384615384617,-32
27923.076923076926,-40
27930.76923076923,-32
27938.46153846154,-30
27946.153846153848,-49
27953.846153846156,-61
27961.53846153846,-51
27969.23076923077,-51
27976.923076923078,-49
27984.615384615387,-32
27992.30769230769,-30
28000.0,-35
28007.69230769231,-23
28015.384615384617,-28
28023.076923076926,-65
28030.76923076923,-84
28038.46153846154,-61
28046.153846153848,-32
28053.846153846156,-9
28061.53846153846,28
28069.23076923077,42
28076.923076923078,18
28084.615384615387,-2
28092.30769230769,0
28100.0,-2
28107.69230769231,-21
28115.384615384617,-47
28123.076923076926,-87
28130.76923076923,-155
28138.46153846154,-70
28146.153846153848,414
28153.846153846156,1173
28161.53846153846,1717
28169.23076923077,1564
28176.923076923078,690
28184.615384615387,-176
28192.30769230769,-369
28200.0,-245
28207.69230769231,-256
28215.384615384617,-233
28223.076923076926,-141
28230.76923076923,-134
28238.46153846154,-148
28246.153846153848,-113
28253.846153846156,-87
28261.53846153846,-80
28269.23076923077,-68
28276.923076923078,-58
28284.615384615387,-42
28292.30769230769,-18
28300.0,0
28307.69230769231,16
28315.384615384617,42
28323.076923076926,70
28330.76923076923,96
28338.46153846154,124
28346.153846153848,155
28353.846153846156,179
28361.53846153846,193
28369.23076923077,195
28376.923076923078,188
28384.615384615387,171
28392.30769230769,146
28400.0,106
28407.69230769231,56
28415.384615384617,11
28423.076923076926,-25
28430.76923076923,-61
28438.46153846154,-87
28446.153846153848,-98
28453.846153846156,-106
28461.53846153846,-106
28469.23076923077,-101
28476.923076923078,-96
28484.615384615387,-87
28492.30769230769,-82
28500.0,-77
28507.69230769231,-70
28515.384615384617,-63
28523.076923076926,-61
28530.76923076923,-56
28538.46153846154,-49
28546.153846153848,-44
28553.846153846156,-40
28561.53846153846,-40
28569.23076923077,-37
28576.923076923078,-37
28584.615384615387,-37
28592.30769230769,-37
28600.0,-35
28607.69230769231,-35
28615.384615384617,-35
28623.076923076926,-37
28630.76923076923,-37
28638.46153846154,-35
28646.153846153848,-32
28653.846153846156,-32
28661.53846153846,-30
28669.23076923077,-30
28676.923076923078,-37
28684.615384615387,-51
28692.30769230769,-61
28700.0,-58
28707.69230769231,-49
28715.384615384617,-18
28723.076923076926,25
28730.76923076923,44
28738.46153846154,30
28746.153846153848,11
28753.846153846156,-4
28761.53846153846,-7
28769.23076923077,-9
28776.923076923078,-32
28784.615384615387,-73
28792.30769230769,-127
28800.0,-148
28807.69230769231,98
28815.384615384617,777
28823.076923076926,1547
28830.76923076923,1832
28838.46153846154,1326
28846.153846153848,320
28853.846153846156,-310
28861.53846153846,-273
28869.23076923077,-190
28876.923076923078,-249
28884.615384615387,-195
28892.30769230769,-139
28900.0,-160
28907.69230769231,-148
28915.384615384617,-115
28923.076923076926,-108
28930.76923076923,-96
28938.46153846154,-77
28946.153846153848,-65
28953.846153846156,-54
28961.53846153846,-32
28969.23076923077,-14
28976.923076923078,4
28984.615384615387,30
28992.30769230769,56
29000.0,80
29007.69230769231,108
29015.384615384617,136
29023.076923076926,160
29030.76923076923,174
29038.46153846154,176
29046.153846153848,171
29053.846153846156,153
29061.53846153846,124
29069.23076923077,84
29076.923076923078,40
29084.615384615387,-2
29092.30769230769,-35
29100.0,-68
29107.69230769231,-91
29115.384615384617,-103
29123.076923076926,-103
29130.76923076923,-101
29138.46153846154,-94
29146.153846153848,-87
29153.846153846156,-84
29161.53846153846,-80
29169.23076923077,-73
29176.923076923078,-68
29184.615384615387,-65
29192.30769230769,-63
29200.0,-56
29207.69230769231,-54
29215.384615384617,-51
29223.076923076926,-49
29230.76923076923,-44
29238.46153846154,-47
29246.153846153848,-51
29253.846153846156,-56
29261.53846153846,-51
29269.23076923077,-49
29276.923076923078,-47
29284.615384615387,-44
29292.30769230769,-42
29300.0,-44
29307.69230769231,-44
29315.384615384617,-42
29323.076923076926,-40
29330.76923076923,-37
29338.46153846154,-35
29346.153846153848,-37
29353.846153846156,-40
29361.53846153846,-42
29369.23076923077,-54
29376.923076923078,-68
29384.615384615387,-65
29392.30769230769,-51
29400.0,-18
29407.69230769231,25
29415.384615384617,40
29423.076923076926,28
29430.76923076923,11
29438.46153846154,-4
29446.153846153848,-11
29453.846153846156,-16
29461.53846153846,-42
29469.23076923077,-80
29476.923076923078,-134
29484.615384615387,-155
29492.30769230769,89
29500.0,756
29507.69230769231,1507
29515.384615384617,1783
29523.076923076926,1272
29530.76923076923,273
29538.46153846154,-339
29546.153846153848,-292
29553.846153846156,-214
29561.53846153846,-270
29569.23076923077,-212
29576.923076923078,-155
29584.615384615387,-176
29592.30769230769,-162
29600.0,-127
29607.69230769231,-120
29615.384615384617,-110
29623.076923076926,-87
29630.76923076923,-73
29638.46153846154,-63
29646.153846153848,-44
29653.846153846156,-28
29661.53846153846,-9
29669.23076923077,16
29676.923076923078,44
29684.615384615387,73
29692.30769230769,101
29700.0,129
29707.69230769231,150
29715.384615384617,162
29723.076923076926,167
29730.76923076923,160
29738.46153846154,143
29746.153846153848,117
29753.846153846156,75
29761.53846153846,28
29769.23076923077,-11
29776.923076923078,-47
29784.615384615387,-80
29792.30769230769,-108
29800.0,-120
29807.69230769231,-115
29815.384615384617,-108
29823.076923076926,-103
29830.76923076923,-98
29838.46153846154,-91
29846.153846153848,-87
29853.846153846156,-82
29861.53846153846,-75
29869.23076923077,-73
29876.923076923078,-68
29884.615384615387,-65
29892.30769230769,-61
29900.0,-56
29907.69230769231,-54
29915.384615384617,-51
29923.076923076926,-49
29930.76923076923,-49
29938.46153846154,-49
29946.153846153848,-49
29953.846153846156,-47
29961.53846153846,-44
29969.23076923077,-47
29976.923076923078,-49
29984.615384615387,-44
29992.30769230769,-40
30000.0,-42
30007.69230769231,-37
30015.384615384617,-35
30023.076923076926,-37
30030.76923076923,-40
30038.46153846154,-47
30046.153846153848,-61
30053.846153846156,-68
30061.53846153846,-63
30069.23076923077,-47
30076.923076923078,-2
30084.615384615387,40
30092.30769230769,40
30100.0,21
30107.69230769231,-2
30115.384615384617,-16
30123.076923076926,-16
30130.76923076923,-28
30138.46153846154,-63
30146.153846153848,-108
30153.846153846156,-164
30161.53846153846,-87
30169.23076923077,388
30176.923076923078,1175
30184.615384615387,1748
30192.30769230769,1611
30200.0,749
30207.69230769231,-143
30215.384615384617,-355
30223.076923076926,-219
30230.76923076923,-235
30238.46153846154,-242
30246.153846153848,-167
30253.846153846156,-169
30261.53846153846,-181
30269.23076923077,-139
30276.923076923078,-117
30284.615384615387,-117
30292.30769230769,-101
30300.0,-82
30307.69230769231,-68
30315.384615384617,-51
30323.076923076926,-32
30330.76923076923,-16
30338.46153846154,4
30346.153846153848,30
30353.846153846156,56
30361.53846153846,84
30369.23076923077,117
30376.923076923078,141
30384.615384615387,148
30392.30769230769,150
30400.0,155
30407.69230769231,148
30415.384615384617,124
30423.076923076926,94
30430.76923076923,51
30438.46153846154,4
30446.153846153848,-32
30453.846153846156,-63
30461.53846153846,-89
30469.23076923077,-103
30476.923076923078,-108
30484.615384615387,-110
30492.30769230769,-106
30500.0,-96
30507.69230769231,-94
30515.384615384617,-89
30523.076923076926,-87
30530.76923076923,-82
30538.46153846154,-75
30546.153846153848,-70
30553.846153846156,-68
30561.53846153846,-61
30569.23076923077,-58
30576.923076923078,-58
30584.615384615387,-58
30592.30769230769,-61
30600.0,-56
30607.69230769231,-54
30615.384615384617,-54
30623.076923076926,-54
30630.76923076923,-51
30638.46153846154,-47
30646.153846153848,-44
30653.846153846156,-47
30661.53846153846,-47
30669.23076923077,-42
30676.923076923078,-35
30684.615384615387,-37
30692.30769230769,-37
30700.0,-32
30707.69230769231,-30
30715.384615384617,-30
30723.076923076926,-30
30730.76923076923,-32
30738.46153846154,-47
30746.153846153848,-61
30753.846153846156,-58
30761.53846153846,-56
30769.23076923077,-44
30776.923076923078,0
30784.615384615387,44
30792.30769230769,51
30800.0,35
30807.69230769231,14
30815.384615384617,4
30823.076923076926,2
30830.76923076923,-11
30838.46153846154,-40
30846.153846153848,-77
30853.846153846156,-134
30861.53846153846,-98
30869.23076923077,285
30876.923076923078,1024
30884.615384615387,1665
30892.30769230769,1691
30900.0,968
30907.69230769231,30
30915.384615384617,-325
30923.076923076926,-209
30930.76923076923,-204
30938.46153846154,-237
30946.153846153848,-160
30953.846153846156,-139
30961.53846153846,-164
30969.23076923077,-141
30976.923076923078,-106
30984.615384615387,-96
30992.30769230769,-89
31000.0,-68
31007.69230769231,-49
31015.384615384617,-42
31023.076923076926,-30
31030.76923076923,-9
31038.46153846154,14
31046.153846153848,37
31053.846153846156,63
31061.53846153846,89
31069.23076923077,115
31076.923076923078,136
31084.615384615387,153
31092.30769230769,164
31100.0,164
31107.69230769231,157
31115.384615384617,146
31123.076923076926,117
31130.76923076923,80
31138.46153846154,42
31146.153846153848,2
31153.846153846156,-32
31161.53846153846,-58
31169.23076923077,-70
31176.923076923078,-77
31184.615384615387,-87
31192.30769230769,-91
31200.0,-80
31207.69230769231,-65
31215.384615384617,-63
31223.076923076926,-63
31230.76923076923,-63
31238.46153846154,-61
31246.153846153848,-49
31253.846153846156,-49
31261.53846153846,-54
31269.23076923077,-49
31276.923076923078,-42
31284.615384615387,-44
31292.30769230769,-47
31300.0,-40
31307.69230769231,-35
31315.384615384617,-40
31323.076923076926,-42
31330.76923076923,-40
31338.46153846154,-30
31346.153846153848,-30
31353.846153846156,-30
31361.53846153846,-28
31369.23076923077,-32
31376.923076923078,-30
31384.615384615387,-21
31392.30769230769,-14
31400.0,-16
31407.69230769231,-21
31415.384615384617,-18
31423.076923076926,-14
31430.76923076923,-9
31438.46153846154,-4
31446.153846153848,-14
31453.846153846156,-16
31461.53846153846,-7
31469.23076923077,-2
31476.923076923078,-2
31484.615384615387,4
31492.30769230769,7
31500.0,-11
31507.69230769231,-11
31515.384615384617,0
31523.076923076926,-9
31530.76923076923,-28
31538.46153846154,-30
31546.153846153848,-28
31553.846153846156,-25
31561.53846153846,-4
31569.23076923077,40
31576.923076923078,70
31584.615384615387,65
31592.30769230769,42
31600.0,21
31607.69230769231,14
31615.384615384617,16
31623.076923076926,9
31630.76923076923,-14
31638.46153846154,-58
31646.153846153848,-103
31653.846153846156,0
31661.53846153846,461
31669.23076923077,1159
31676.923076923078,1637
31684.615384615387,1474
31692.30769230769,654
31700.0,-129
31707.69230769231,-270
31715.384615384617,-160
31723.076923076926,-200
31730.76923076923,-195
31738.46153846154,-124
31746.153846153848,-127
31753.846153846156,-134
31761.53846153846,-103
31769.23076923077,-94
31776.923076923078,-87
31784.615384615387,-65
31792.30769230769,-49
31800.0,-40
31807.69230769231,-23
31815.384615384617,-7
31823.076923076926,7
31830.76923076923,25
31838.46153846154,56
31846.153846153848,82
31853.846153846156,101
31861.53846153846,124
31869.23076923077,143
31876.923076923078,157
31884.615384615387,169
31892.30769230769,169
31900.0,157
31907.69230769231,148
31915.384615384617,131
31923.076923076926,103
31930.76923076923,61
31938.46153846154,18
31946.153846153848,-11
31953.846153846156,-40
31961.53846153846,-61
31969.23076923077,-68
31976.923076923078,-70
31984.615384615387,-75
31992.30769230769,-70
32000.0,-63
32007.69230769231,-61
32015.384615384617,-58
32023.076923076926,-54
32030.76923076923,-49
32038.46153846154,-44
32046.153846153848,-37
32053.846153846156,-35
32061.53846153846,-37
32069.23076923077,-40
32076.923076923078,-32
32084.615384615387,-30
32092.30769230769,-40
32100.0,-44
32107.69230769231,-37
32115.384615384617,-35
32123.076923076926,-37
32130.76923076923,-35
32138.46153846154,-32
32146.153846153848,-30
32153.846153846156,-28
32161.53846153846,-28
32169.23076923077,-25
32176.923076923078,-23
32184.615384615387,-25
32192.30769230769,-25
32200.0,-21
32207.69230769231,-16
32215.384615384617,-16
32223.076923076926,-18
32230.76923076923,-16
32238.46153846154,-16
32246.153846153848,-16
32253.846153846156,-11
32261.53846153846,-4
32269.23076923077,-7
32276.923076923078,-11
32284.615384615387,-9
32292.30769230769,-7
32300.0,-11
32307.69230769231,-18
32315.384615384617,-23
32323.076923076926,-23
32330.76923076923,-18
32338.46153846154,4
32346.153846153848,44
32353.846153846156,61
32361.53846153846,51
32369.23076923077,28
32376.923076923078,14
32384.615384615387,14
32392.30769230769,14
32400.0,2
32407.69230769231,-18
32415.384615384617,-54
32423.076923076926,-94
32430.76923076923,30
32438.46153846154,515
32446.153846153848,1170
32453.846153846156,1529
32461.53846153846,1248
32469.23076923077,440
32476.923076923078,-197
32484.615384615387,-268
32492.30769230769,-195
32500.0,-216
32507.69230769231,-164
32515.384615384617,-101
32523.076923076926,-117
32530.76923076923,-115
32538.46153846154,-77
32546.153846153848,-68
32553.846153846156,-65
32561.53846153846,-44
32569.23076923077,-25
32576.923076923078,-18
32584.615384615387,-4
32592.30769230769,18
32600.0,35
32607.69230769231,51
32615.384615384617,75
32623.076923076926,98
32630.76923076923,115
32638.46153846154,134
32646.153846153848,157
32653.846153846156,174
32661.53846153846,181
32669.23076923077,176
32676.923076923078,164
32684.615384615387,148
32692.30769230769,122
32700.0,87
32707.69230769231,49
32715.384615384617,16
32723.076923076926,-16
32730.76923076923,-47
32738.46153846154,-70
32746.153846153848,-80
32753.846153846156,-87
32761.53846153846,-84
32769.23076923077,-75
32776.92307692308,-73
32784.61538461538,-73
32792.307692307695,-65
32800.0,-54
32807.69230769231,-49
32815.38461538462,-47
32823.07692307692,-47
32830.769230769234,-44
32838.46153846154,-42
32846.153846153844,-42
32853.846153846156,-44
32861.53846153846,-42
32869.23076923077,-37
32876.92307692308,-35
32884.61538461538,-37
32892.307692307695,-40
32900.0,-37
32907.69230769231,-32
32915.38461538462,-32
32923.07692307692,-37
32930.769230769234,-40
32938.46153846154,-40
32946.153846153844,-37
32953.846153846156,-32
32961.53846153846,-25
32969.23076923077,-30
32976.92307692308,-28
32984.61538461538,-16
32992.307692307695,-14
33000.0,-16
33007.69230769231,-9
33015.38461538462,-7
33023.07692307692,-21
33030.769230769234,-25
33038.46153846154,-16
33046.153846153844,-16
33053.846153846156,-21
33061.53846153846,-28
33069.23076923077,-35
33076.92307692308,-42
33084.61538461538,-42
33092.307692307695,-21
33100.0,16
33107.69230769231,37
33115.38461538462,35
33123.07692307692,23
33130.769230769234,9
33138.46153846154,2
33146.153846153844,0
33153.846153846156,-9
33161.53846153846,-30
33169.23076923077,-70
33176.92307692308,-120
33184.61538461538,-25
33192.307692307695,442
33200.0,1161
33207.69230769231,1623
33215.38461538462,1390
33223.07692307692,539
33230.769230769234,-221
33238.46153846154,-367
33246.153846153844,-263
33253.846153846156,-261
33261.53846153846,-207
33269.23076923077,-108
33276.92307692308,-113
33284.61538461538,-129
33292.307692307695,-94
33300.0,-68
33307.69230769231,-63
33315.38461538462,-47
33323.07692307692,-28
33330.769230769234,-18
33338.46153846154,-7
33346.153846153844,16
33353.846153846156,47
33361.53846153846,73
33369.23076923077,91
33376.92307692308,115
33384.61538461538,141
33392.307692307695,164
33400.0,190
33407.69230769231,207
33415.38461538462,200
33423.07692307692,195
33430.769230769234,193
33438.46153846154,179
33446.153846153844,150
33453.846153846156,108
33461.53846153846,51
33469.23076923077,2
33476.92307692308,-28
33484.61538461538,-54
33492.307692307695,-82
33500.0,-101
33507.69230769231,-120
33515.38461538462,-120
33523.07692307692,-94
33530.769230769234,-82
33538.46153846154,-87
33546.153846153844,-77
33553.846153846156,-65
33561.53846153846,-58
33569.23076923077,-61
33576.92307692308,-63
33584.61538461538,-56
33592.307692307695,-54
33600.0,-56
33607.69230769231,-51
33615.38461538462,-47
33623.07692307692,-49
33630.769230769234,-49
33638.46153846154,-51
33646.153846153844,-61
33653.846153846156,-61
33661.53846153846,-54
33669.23076923077,-54
33676.92307692308,-49
33684.61538461538,-42
33692.307692307695,-44
33700.0,-49
33707.69230769231,-47
33715.38461538462,-42
33723.07692307692,-37
33730.769230769234,-32
33738.46153846154,-30
33746.153846153844,-35
33753.846153846156,-49
33761.53846153846,-63
33769.23076923077,-58
33776.92307692308,-56
33784.61538461538,-68
33792.307692307695,-58
33800.0,-9
33807.69230769231,28
33815.38461538462,28
33823.07692307692,16
33830.769230769234,4
33838.46153846154,-9
33846.153846153844,-11
33853.846153846156,-11
33861.53846153846,-28
33869.23076923077,-61
33876.92307692308,-108
33884.61538461538,-91
33892.307692307695,228
33900.0,907
33907.69230769231,1545
33915.38461538462,1623
33923.07692307692,954
33930.769230769234,23
33938.46153846154,-381
33946.153846153844,-287
33953.846153846156,-240
33961.53846153846,-240
33969.23076923077,-148
33976.92307692308,-110
33984.61538461538,-131
33992.307692307695,-103
34000.0,-73
34007.69230769231,-75
34015.38461538462,-63
34023.07692307692,-40
34030.769230769234,-32
34038.46153846154,-18
34046.153846153844,2
34053.846153846156,23
34061.53846153846,44
34069.23076923077,70
34076.92307692308,94
34084.61538461538,120
34092.307692307695,150
34100.0,179
34107.69230769231,195
34115.38461538462,202
34123.07692307692,195
34130.769230769234,188
34138.46153846154,171
34146.153846153844,139
34153.846153846156,94
34161.53846153846,44
34169.23076923077,-4
34176.92307692308,-42
34184.61538461538,-70
34192.307692307695,-91
34200.0,-103
34207.69230769231,-106
34215.38461538462,-101
34223.07692307692,-96
34230.769230769234,-94
34238.46153846154,-89
34246.153846153844,-80
34253.846153846156,-70
34261.53846153846,-63
34269.23076923077,-56
34276.92307692308,-51
34284.61538461538,-49
34292.307692307695,-49
34300.0,-49
34307.69230769231,-49
34315.38461538462,-49
34323.07692307692,-44
34330.769230769234,-42
34338.46153846154,-44
34346.153846153844,-49
34353.846153846156,-44
34361.53846153846,-44
34369.23076923077,-44
34376.92307692308,-37
34384.61538461538,-40
34392.307692307695,-47
34400.0,-42
34407.69230769231,-35
34415.38461538462,-32
34423.07692307692,-32
34430.769230769234,-32
34438.46153846154,-30
34446.153846153844,-28
34453.846153846156,-23
34461.53846153846,-16
34469.23076923077,-16
34476.92307692308,-18
34484.61538461538,-18
34492.307692307695,-21
34500.0,-28
34507.69230769231,-42
34515.38461538462,-47
34523.07692307692,-40
34530.769230769234,-28
34538.46153846154,-7
34546.153846153844,28
34553.846153846156,47
34561.53846153846,40
34569.23076923077,21
34576.92307692308,7
34584.61538461538,0
34592.307692307695,-7
34600.0,-25
34607.69230769231,-61
34615.38461538462,-117
34623.07692307692,-120
34630.769230769234,162
34638.46153846154,817
34646.153846153844,1512
34653.846153846156,1752
34661.53846153846,1239
34669.23076923077,259
34676.92307692308,-318
34684.61538461538,-268
34692.307692307695,-212
34700.0,-261
34707.69230769231,-190
34715.38461538462,-139
34723.07692307692,-157
34730.769230769234,-141
34738.46153846154,-108
34746.153846153844,-106
34753.846153846156,-101
34761.53846153846,-75
34769.23076923077,-54
34776.92307692308,-42
34784.61538461538,-28
34792.307692307695,-14
34800.0,0
34807.69230769231,23
34815.38461538462,58
34823.07692307692,91
34830.769230769234,124
34838.46153846154,150
34846.153846153844,171
34853.846153846156,195
34861.53846153846,209
34869.23076923077,202
34876.92307692308,183
34884.61538461538,153
34892.307692307695,117
34900.0,77
34907.69230769231,23
34915.38461538462,-25
34923.07692307692,-58
34930.769230769234,-80
34938.46153846154,-96
34946.153846153844,-113
34953.846153846156,-115
34961.53846153846,-110
34969.23076923077,-108
34976.92307692308,-103
34984.61538461538,-91
34992.307692307695,-84
35000.0,-82
35007.69230769231,-84
35015.38461538462,-77
35023.07692307692,-70
35030.769230769234,-65
35038.46153846154,-61
35046.153846153844,-54
35053.846153846156,-47
35061.53846153846,-40
35069.23076923077,-42
35076.92307692308,-47
35084.61538461538,-51
35092.307692307695,-49
35100.0,-47
35107.69230769231,-44
35115.38461538462,-47
35123.07692307692,-49
35130.769230769234,-47
35138.46153846154,-40
35146.153846153844,-40
35153.846153846156,-42
35161.53846153846,-37
35169.23076923077,-40
35176.92307692308,-51
35184.61538461538,-61
35192.307692307695,-61
35200.0,-63
35207.69230769231,-54
35215.38461538462,-16
35223.07692307692,21
35230.769230769234,28
35238.46153846154,14
35246.153846153844,-4
35253.846153846156,-11
35261.53846153846,-9
35269.23076923077,-14
35276.92307692308,-32
35284.61538461538,-70
35292.307692307695,-129
35300.0,-134
35307.69230769231,155
35315.38461538462,845
35323.07692307692,1559
35330.769230769234,1724
35338.46153846154,1083
35346.153846153844,77
35353.846153846156,-414
35361.53846153846,-308
35369.23076923077,-245
35376.92307692308,-270
35384.61538461538,-176
35392.307692307695,-117
35400.0,-141
35407.69230769231,-120
35415.38461538462,-87
35423.07692307692,-94
35430.769230769234,-89
35438.46153846154,-58
35446.153846153844,-37
35453.846153846156,-25
35461.53846153846,-9
35469.23076923077,9
35476.92307692308,28
35484.61538461538,47
35492.307692307695,77
35500.0,113
35507.69230769231,146
35515.38461538462,171
35523.07692307692,193
35530.769230769234,202
35538.46153846154,202
35546.153846153844,200
35553.846153846156,176
35561.53846153846,124
35569.23076923077,73
35576.92307692308,23
35584.61538461538,-30
35592.307692307695,-63
35600.0,-91
35607.69230769231,-122
35615.38461538462,-122
35623.07692307692,-113
35630.769230769234,-113
35638.46153846154,-110
35646.153846153844,-106
35653.846153846156,-101
35661.53846153846,-98
35669.23076923077,-94
35676.92307692308,-87
35684.61538461538,-80
35692.307692307695,-75
35700.0,-70
35707.69230769231,-58
35715.38461538462,-47
35723.07692307692,-44
35730.769230769234,-44
35738.46153846154,-32
35746.153846153844,-25
35753.846153846156,-40
35761.53846153846,-49
35769.23076923077,-49
35776.92307692308,-49
35784.61538461538,-44
35792.307692307695,-40
35800.0,-42
35807.69230769231,-51
35815.38461538462,-54
35823.07692307692,-44
35830.769230769234,-42
35838.46153846154,-49
35846.153846153844,-47
35853.846153846156,-37
35861.53846153846,-32
35869.23076923077,-18
35876.92307692308,-21
35884.61538461538,-42
35892.307692307695,-32
35900.0,-21
35907.69230769231,-32
35915.38461538462,-51
35923.07692307692,-58
35930.769230769234,-58
35938.46153846154,-47
35946.153846153844,-11
35953.846153846156,25
35961.53846153846,32
35969.23076923077,25
35976.92307692308,18
35984.61538461538,7
35992.307692307695,-2
36000.0,-9
36007.69230769231,-30
36015.38461538462,-68
36023.07692307692,-124
36030.769230769234,-127
36038.46153846154,160
36046.153846153844,831
36053.846153846156,1533
36061.53846153846,1752
36069.23076923077,1196
36076.92307692308,186
36084.61538461538,-376
36092.307692307695,-287
36100.0,-209
36107.69230769231,-261
36115.38461538462,-195
36123.07692307692,-150
36130.769230769234,-174
36138.46153846154,-153
36146.153846153844,-117
36153.846153846156,-110
36161.53846153846,-101
36169.23076923077,-80
36176.92307692308,-58
36184.61538461538,-49
36192.307692307695,-49
36200.0,-32
36207.69230769231,0
36215.38461538462,37
36223.07692307692,63
36230.769230769234,84
36238.46153846154,115
36246.153846153844,153
36253.846153846156,186
36261.53846153846,209
36269.23076923077,216
36276.92307692308,212
36284.61538461538,202
36292.307692307695,171
36300.0,127
36307.69230769231,77
36315.38461538462,23
36323.07692307692,-30
36330.769230769234,-75
36338.46153846154,-108
36346.153846153844,-127
36353.846153846156,-129
36361.53846153846,-124
36369.23076923077,-122
36376.92307692308,-113
36384.61538461538,-101
36392.307692307695,-101
36400.0,-110
36407.69230769231,-110
36415.38461538462,-98
36423.07692307692,-89
36430.769230769234,-84
36438.46153846154,-84
36446.153846153844,-84
36453.846153846156,-80
36461.53846153846,-68
36469.23076923077,-58
36476.92307692308,-58
36484.61538461538,-68
36492.307692307695,-65
36500.0,-56
36507.69230769231,-56
36515.38461538462,-58
36523.07692307692,-56
36530.769230769234,-61
36538.46153846154,-58
36546.153846153844,-49
36553.846153846156,-49
36561.53846153846,-51
36569.23076923077,-42
36576.92307692308,-35
36584.61538461538,-40
36592.307692307695,-44
36600.0,-42
36607.69230769231,-44
36615.38461538462,-44
36623.07692307692,-44
36630.769230769234,-47
36638.46153846154,-49
36646.153846153844,-47
36653.846153846156,-21
36661.53846153846,23
36669.23076923077,47
36676.92307692308,32
36684.61538461538,4
36692.307692307695,-4
36700.0,-4
36707.69230769231,-4
36715.38461538462,-14
36723.07692307692,-37
36730.769230769234,-87
36738.46153846154,-127
36746.153846153844,40
36753.846153846156,614
36761.53846153846,1373
36769.23076923077,1731
36776.92307692308,1291
36784.61538461538,289
36792.307692307695,-386
36800.0,-372
36807.69230769231,-256
36815.38461538462,-273
36823.07692307692,-193
36830.769230769234,-103
36838.46153846154,-110
36846.153846153844,-103
36853.846153846156,-68
36861.53846153846,-63
36869.23076923077,-58
36876.92307692308,-35
36884.61538461538,-18
36892.307692307695,-4
36900.0,7
36907.69230769231,16
36915.38461538462,40
36923.07692307692,73
36930.769230769234,101
36938.46153846154,129
36946.153846153844,160
36953.846153846156,190
36961.53846153846,223
36969.23076923077,240
36976.92307692308,237
36984.61538461538,228
36992.307692307695,204
37000.0,167
37007.69230769231,120
37015.38461538462,58
37023.07692307692,2
37030.769230769234,-44
37038.46153846154,-84
37046.153846153844,-115
37053.846153846156,-129
37061.53846153846,-131
37069.23076923077,-129
37076.92307692308,-122
37084.61538461538,-124
37092.307692307695,-129
37100.0,-117
37107.69230769231,-106
37115.38461538462,-101
37123.07692307692,-94
37130.769230769234,-84
37138.46153846154,-80
37146.153846153844,-75
37153.846153846156,-63
37161.53846153846,-51
37169.23076923077,-47
37176.92307692308,-42
37184.61538461538,-42
37192.307692307695,-42
37200.0,-42
37207.69230769231,-37
37215.38461538462,-40
37223.07692307692,-47
37230.769230769234,-42
37238.46153846154,-35
37246.153846153844,-40
37253.846153846156,-42
37261.53846153846,-37
37269.23076923077,-35
37276.92307692308,-32
37284.61538461538,-28
37292.307692307695,-28
37300.0,-28
37307.69230769231,-23
37315.38461538462,-23
37323.07692307692,-28
37330.769230769234,-28
37338.46153846154,-18
37346.153846153844,-14
37353.846153846156,-23
37361.53846153846,-37
37369.23076923077,-49
37376.92307692308,-47
37384.61538461538,-42
37392.307692307695,-35
37400.0,-11
37407.69230769231,25
37415.38461538462,51
37423.07692307692,44
37430.769230769234,23
37438.46153846154,11
37446.153846153844,7
37453.846153846156,-4
37461.53846153846,-30
37469.23076923077,-63
37476.92307692308,-117
37484.61538461538,-164
37492.307692307695,11
37500.0,619
37507.69230769231,1425
37515.38461538462,1875
37523.07692307692,1554
37530.769230769234,563
37538.46153846154,-249
37546.153846153844,-310
37553.846153846156,-181
37561.53846153846,-249
37569.23076923077,-226
37576.92307692308,-146
37584.61538461538,-169
37592.307692307695,-176
37600.0,-134
37607.69230769231,-122
37615.38461538462,-113
37623.07692307692,-87
37630.769230769234,-82
37638.46153846154,-77
37646.153846153844,-56
37653.846153846156,-35
37661.53846153846,-16
37669.23076923077,4
37676.92307692308,28
37684.61538461538,54
37692.307692307695,87
37700.0,120
37707.69230769231,150
37715.38461538462,174
37723.07692307692,186
37730.769230769234,188
37738.46153846154,179
37746.153846153844,157
37753.846153846156,115
37761.53846153846,65
37769.23076923077,16
37776.92307692308,-35
37784.61538461538,-73
37792.307692307695,-96
37800.0,-115
37807.69230769231,-122
37815.38461538462,-120
37823.07692307692,-117
37830.769230769234,-110
37838.46153846154,-103
37846.153846153844,-103
37853.846153846156,-106
37861.53846153846,-96
37869.23076923077,-91
37876.92307692308,-89
37884.61538461538,-84
37892.307692307695,-77
37900.0,-77
37907.69230769231,-70
37915.38461538462,-54
37923.07692307692,-49
37930.769230769234,-51
37938.46153846154,-51
37946.153846153844,-49
37953.846153846156,-44
37961.53846153846,-42
37969.23076923077,-42
37976.92307692308,-37
37984.61538461538,-37
37992.307692307695,-42
38000.0,-37
38007.69230769231,-32
38015.38461538462,-30
38023.07692307692,-28
38030.769230769234,-30
38038.46153846154,-30
38046.153846153844,-21
38053.846153846156,-21
38061.53846153846,-23
38069.23076923077,-21
38076.92307692308,-21
38084.61538461538,-23
38092.307692307695,-18
38100.0,-18
38107.69230769231,-21
38115.38461538462,-16
38123.07692307692,-7
38130.769230769234,-11
38138.46153846154,-14
38146.153846153844,-4
38153.846153846156,2
38161.53846153846,0
38169.23076923077,-7
38176.92307692308,-11
38184.61538461538,-9
38192.307692307695,-2
38200.0,-4
38207.69230769231,-16
38215.38461538462,-28
38223.07692307692,-32
38230.769230769234,-32
38238.46153846154,-28
38246.153846153844,-11
38253.846153846156,21
38261.53846153846,44
38269.23076923077,42
38276.92307692308,35
38284.61538461538,23
38292.307692307695,9
38300.0,0
38307.69230769231,-11
38315.38461538462,-30
38323.07692307692,-63
38330.769230769234,-134
38338.46153846154,-141
38346.153846153844,197
38353.846153846156,935
38361.53846153846,1658
38369.23076923077,1863
38376.92307692308,1265
38384.61538461538,219
38392.307692307695,-329
38400.0,-235
38407.69230769231,-195
38415.38461538462,-263
38423.07692307692,-193
38430.769230769234,-150
38438.46153846154,-181
38446.153846153844,-150
38453.846153846156,-108
38461.53846153846,-113
38469.23076923077,-103
38476.92307692308,-77
38484.61538461538,-65
38492.307692307695,-56
38500.0,-35
38507.69230769231,-4
38515.38461538462,9
38523.07692307692,23
38530.769230769234,51
38538.46153846154,82
38546.153846153844,113
38553.846153846156,146
38561.53846153846,181
38569.23076923077,204
38576.92307692308,214
38584.61538461538,214
38592.307692307695,209
38600.0,183
38607.69230769231,139
38615.38461538462,80
38623.07692307692,28
38630.769230769234,-14
38638.46153846154,-54
38646.153846153844,-82
38653.846153846156,-91
38661.53846153846,-96
38669.23076923077,-106
38676.92307692308,-103
38684.61538461538,-91
38692.307692307695,-82
38700.0,-84
38707.69230769231,-84
38715.38461538462,-77
38723.07692307692,-70
38730.769230769234,-68
38738.46153846154,-65
38746.153846153844,-65
38753.846153846156,-63
38761.53846153846,-58
38769.23076923077,-49
38776.92307692308,-47
38784.61538461538,-49
38792.307692307695,-51
38800.0,-54
38807.69230769231,-44
38815.38461538462,-37
38823.07692307692,-40
38830.769230769234,-40
38838.46153846154,-40
38846.153846153844,-40
38853.846153846156,-32
38861.53846153846,-32
38869.23076923077,-32
38876.92307692308,-25
38884.61538461538,-23
38892.307692307695,-28
38900.0,-18
38907.69230769231,-14
38915.38461538462,-21
38923.07692307692,-25
38930.769230769234,-18
38938.46153846154,-16
38946.153846153844,-18
38953.846153846156,-16
38961.53846153846,-11
38969.23076923077,-9
38976.92307692308,-7
38984.61538461538,0
38992.307692307695,2
39000.0,2
39007.69230769231,7
39015.38461538462,14
39023.07692307692,7
39030.769230769234,0
39038.46153846154,7
39046.153846153844,11
39053.846153846156,14
39061.53846153846,14
39069.23076923077,7
39076.92307692308,4
39084.61538461538,4
39092.307692307695,0
39100.0,-2
39107.69230769231,4
39115.38461538462,16
39123.07692307692,40
39130.769230769234,68
39138.46153846154,70
39146.153846153844,49
39153.846153846156,37
39161.53846153846,25
39169.23076923077,11
39176.92307692308,11
39184.61538461538,0
39192.307692307695,-37
39200.0,-94
39207.69230769231,-136
39215.38461538462,35
39223.07692307692,612
39230.769230769234,1375
39238.46153846154,1823
39246.153846153844,1557
39253.846153846156,593
39261.53846153846,-237
39269.23076923077,-308
39276.92307692308,-174
39284.61538461538,-247
39292.307692307695,-233
39300.0,-148
39307.69230769231,-157
39315.38461538462,-155
39323.07692307692,-113
39330.769230769234,-106
39338.46153846154,-108
39346.153846153844,-96
39353.846153846156,-84
39361.53846153846,-63
39369.23076923077,-37
39376.92307692308,-30
39384.61538461538,-21
39392.307692307695,9
39400.0,44
39407.69230769231,73
39415.38461538462,106
39423.07692307692,139
39430.769230769234,162
39438.46153846154,190
39446.153846153844,214
39453.846153846156,212
39461.53846153846,197
39469.23076923077,186
39476.92307692308,155
39484.61538461538,98
39492.307692307695,44
39500.0,-2
39507.69230769231,-47
39515.38461538462,-73
39523.07692307692,-91
39530.769230769234,-110
39538.46153846154,-120
39546.153846153844,-110
39553.846153846156,-98
39561.53846153846,-101
39569.23076923077,-103
39576.92307692308,-96
39584.61538461538,-89
39592.307692307695,-84
39600.0,-80
39607.69230769231,-77
39615.38461538462,-80
39623.07692307692,-75
39630.769230769234,-70
39638.46153846154,-65
39646.153846153844,-65
39653.846153846156,-61
39661.53846153846,-49
39669.23076923077,-44
39676.92307692308,-49
39684.61538461538,-54
39692.307692307695,-61
39700.0,-51
39707.69230769231,-37
39715.38461538462,-40
39723.07692307692,-51
39730.769230769234,-44
39738.46153846154,-32
39746.153846153844,-42
39753.846153846156,-44
39761.53846153846,-32
39769.23076923077,-28
39776.92307692308,-30
39784.61538461538,-30
39792.307692307695,-25
39800.0,-21
39807.69230769231,-23
39815.38461538462,-32
39823.07692307692,-32
39830.769230769234,-18
39838.46153846154,-11
39846.153846153844,-25
39853.846153846156,-30
39861.53846153846,-21
39869.23076923077,-14
39876.92307692308,-14
39884.61538461538,-7
39892.307692307695,-4
39900.0,-11
39907.69230769231,-9
39915.38461538462,0
39923.07692307692,-2
39930.769230769234,-4
39938.46153846154,-7
39946.153846153844,-9
39953.846153846156,-4
39961.53846153846,-4
39969.23076923077,-4
39976.92307692308,2
39984.61538461538,11
39992.307692307695,25
40000.0,47
40007.69230769231,56
40015.38461538462,40
40023.07692307692,30
40030.769230769234,25
40038.46153846154,7
40046.153846153844,-2
40053.846153846156,-11
40061.53846153846,-42
40069.23076923077,-91
40076.92307692308,-129
40084.61538461538,49
40092.307692307695,629
40100.0,1366
40107.69230769231,1764
40115.38461538462,1441
40123.07692307692,492
40130.769230769234,-254
40138.46153846154,-296
40146.153846153844,-193
40153.846153846156,-256
40161.53846153846,-212
40169.23076923077,-131
40176.92307692308,-150
40184.61538461538,-146
40192.307692307695,-103
40200.0,-101
40207.69230769231,-98
40215.38461538462,-75
40223.07692307692,-54
40230.769230769234,-40
40238.46153846154,-21
40246.153846153844,-14
40253.846153846156,2
40261.53846153846,25
40269.23076923077,54
40276.92307692308,87
40284.61538461538,120
40292.307692307695,141
40300.0,167
40307.69230769231,197
40315.38461538462,207
40323.07692307692,207
40330.769230769234,204
40338.46153846154,183
40346.153846153844,143
40353.846153846156,103
40361.53846153846,54
40369.23076923077,9
40376.92307692308,-28
40384.61538461538,-68
40392.307692307695,-96
40400.0,-101
40407.69230769231,-106
40415.38461538462,-108
40423.07692307692,-108
40430.769230769234,-101
40438.46153846154,-89
40446.153846153844,-82
40453.846153846156,-89
40461.53846153846,-94
40469.23076923077,-82
40476.92307692308,-65
40484.61538461538,-61
40492.307692307695,-63
40500.0,-54
40507.69230769231,-47
40515.38461538462,-47
40523.07692307692,-42
40530.769230769234,-37
40538.46153846154,-42
40546.153846153844,-47
40553.846153846156,-40
40561.53846153846,-40
40569.23076923077,-40
40576.92307692308,-35
40584.61538461538,-35
40592.307692307695,-40
40600.0,-32
40607.69230769231,-25
40615.38461538462,-28
40623.07692307692,-32
40630.769230769234,-32
40638.46153846154,-28
40646.153846153844,-23
40653.846153846156,-21
40661.53846153846,-23
40669.23076923077,-23
40676.92307692308,-23
40684.61538461538,-18
40692.307692307695,-11
40700.0,-9
40707.69230769231,-4
40715.38461538462,-2
40723.07692307692,-7
40730.769230769234,-7
40738.46153846154,0
40746.153846153844,-2
40753.846153846156,-4
40761.53846153846,2
40769.23076923077,7
40776.92307692308,2
40784.61538461538,2
40792.307692307695,4
40800.0,2
40807.69230769231,-2
40815.38461538462,-2
40823.07692307692,2
40830.769230769234,7
40838.46153846154,4
40846.153846153844,14
40853.846153846156,44
40861.53846153846,61
40869.23076923077,51
40876.92307692308,44
40884.61538461538,40
40892.307692307695,23
40900.0,11
40907.69230769231,9
40915.38461538462,-2
40923.07692307692,-28
40930.769230769234,-70
40938.46153846154,-89
40946.153846153844,98
40953.846153846156,640
40961.53846153846,1295
40969.23076923077,1616
40976.92307692308,1248
40984.61538461538,358
40992.307692307695,-259
41000.0,-266
41007.69230769231,-197
41015.38461538462,-235
41023.07692307692,-164
41030.769230769234,-101
41038.46153846154,-124
41046.153846153844,-115
41053.846153846156,-75
41061.53846153846,-70
41069.23076923077,-65
41076.92307692308,-47
41084.61538461538,-35
41092.307692307695,-30
41100.0,-14
41107.69230769231,9
41115.38461538462,30
41123.07692307692,47
41130.769230769234,68
41138.46153846154,98
41146.153846153844,129
41153.846153846156,162
41161.53846153846,195
41169.23076923077,223
41176.92307692308,230
41184.61538461538,230
41192.307692307695,226
41200.0,209
41207.69230769231,174
41215.38461538462,131
41223.07692307692,87
41230.769230769234,35
41238.46153846154,-14
41246.153846153844,-54
41253.846153846156,-80
41261.53846153846,-89
41269.23076923077,-89
41276.92307692308,-94
41284.61538461538,-96
41292.307692307695,-91
41300.0,-87
41307.69230769231,-82
41315.38461538462,-77
41323.07692307692,-73
41330.769230769234,-65
41338.46153846154,-54
41346.153846153844,-44
41353.846153846156,-47
41361.53846153846,-51
41369.23076923077,-49
41376.92307692308,-44
41384.61538461538,-42
41392.307692307695,-35
41400.0,-32
41407.69230769231,-37
41415.38461538462,-42
41423.07692307692,-42
41430.769230769234,-37
41438.46153846154,-35
41446.153846153844,-35
41453.846153846156,-35
41461.53846153846,-32
41469.23076923077,-25
41476.92307692308,-16
41484.61538461538,-14
41492.307692307695,-16
41500.0,-18
41507.69230769231,-18
41515.38461538462,-16
41523.07692307692,-16
41530.769230769234,-21
41538.46153846154,-18
41546.153846153844,-9
41553.846153846156,-7
41561.53846153846,-11
41569.23076923077,-9
41576.92307692308,-9
41584.61538461538,-14
41592.307692307695,-16
41600.0,-14
41607.69230769231,-7
41615.38461538462,-4
41623.07692307692,-9
41630.769230769234,-11
41638.46153846154,7
41646.153846153844,37
41653.846153846156,47
41661.53846153846,35
41669.23076923077,25
41676.92307692308,21
41684.61538461538,9
41692.307692307695,0
41700.0,-9
41707.69230769231,-28
41715.38461538462,-63
41723.07692307692,-103
41730.769230769234,-4
41738.46153846154,421
41746.153846153844,1102
41753.846153846156,1592
41761.53846153846,1420
41769.23076923077,570
41776.92307692308,-242
41784.61538461538,-407
41792.307692307695,-280
41800.0,-270
41807.69230769231,-223
41815.38461538462,-115
41823.07692307692,-96
41830.769230769234,-110
41838.46153846154,-77
41846.153846153844,-54
41853.846153846156,-54
41861.53846153846,-40
41869.23076923077,-16
41876.92307692308,-4
41884.61538461538,7
41892.307692307695,32
41900.0,51
41907.69230769231,68
41915.38461538462,98
41923.07692307692,129
41930.769230769234,157
41938.46153846154,193
41946.153846153844,233
41953.846153846156,259
41961.53846153846,270
41969.23076923077,275
41976.92307692308,261
41984.61538461538,237
41992.307692307695,207
42000.0,153
42007.69230769231,94
42015.38461538462,42
42023.07692307692,-11
42030.769230769234,-58
42038.46153846154,-89
42046.153846153844,-113
42053.846153846156,-127
42061.53846153846,-127
42069.23076923077,-120
42076.92307692308,-120
42084.61538461538,-120
42092.307692307695,-106
42100.0,-96
42107.69230769231,-91
42115.38461538462,-75
42123.07692307692,-75
42130.769230769234,-77
42138.46153846154,-70
42146.153846153844,-68
42153.846153846156,-65
42161.53846153846,-58
42169.23076923077,-63
42176.92307692308,-77
42184.61538461538,-75
42192.307692307695,-63
42200.0,-58
42207.69230769231,-61
42215.38461538462,-61
42223.07692307692,-65
42230.769230769234,-63
42238.46153846154,-54
42246.153846153844,-54
42253.846153846156,-61
42261.53846153846,-56
42269.23076923077,-49
42276.92307692308,-49
42284.61538461538,-58
42292.307692307695,-61
42300.0,-56
42307.69230769231,-54
42315.38461538462,-54
42323.07692307692,-49
42330.769230769234,-35
42338.46153846154,-30
42346.153846153844,-51
42353.846153846156,-61
42361.53846153846,-42
42369.23076923077,-28
42376.92307692308,-35
42384.61538461538,-28
42392.307692307695,-2
42400.0,11
42407.69230769231,16
42415.38461538462,21
42423.07692307692,18
42430.769230769234,9
42438.46153846154,-2
42446.153846153844,-21
42453.846153846156,-40
42461.53846153846,-63
42469.23076923077,-98
42476.92307692308,-148
42484.61538461538,-131
42492.307692307695,202
42500.0,914
42507.69230769231,1609
42515.38461538462,1757
42523.07692307692,1119
42530.769230769234,108
42538.46153846154,-393
42546.153846153844,-285
42553.846153846156,-233
42561.53846153846,-280
42569.23076923077,-204
42576.92307692308,-169
42584.61538461538,-193
42592.307692307695,-157
42600.0,-127
42607.69230769231,-136
42615.38461538462,-124
42623.07692307692,-101
42630.769230769234,-89
42638.46153846154,-70
42646.153846153844,-49
42653.846153846156,-35
42661.53846153846,-16
42669.23076923077,4
42676.92307692308,28
42684.61538461538,63
42692.307692307695,101
42700.0,131
42707.69230769231,162
42715.38461538462,183
42723.07692307692,183
42730.769230769234,181
42738.46153846154,183
42746.153846153844,157
42753.846153846156,113
42761.53846153846,65
42769.23076923077,11
42776.92307692308,-35
42784.61538461538,-65
42792.307692307695,-98
42800.0,-139
42807.69230769231,-148
42815.38461538462,-134
42823.07692307692,-129
42830.769230769234,-124
42838.46153846154,-110
42846.153846153844,-110
42853.846153846156,-122
42861.53846153846,-110
42869.23076923077,-96
42876.92307692308,-94
42884.61538461538,-87
