timestamp,ecg
0.0,-181
7.6923076923076925,-186
15.384615384615385,-184
23.076923076923077,-184
30.76923076923077,-184
38.46153846153846,-179
46.15384615384615,-181
53.84615384615385,-186
61.53846153846154,-177
69.23076923076923,-181
76.92307692307692,-188
84.61538461538461,-177
92.3076923076923,-169
100.0,-179
107.6923076923077,-191
115.38461538461539,-191
123.07692307692308,-174
130.76923076923077,-151
138.46153846153845,-136
146.15384615384616,-132
153.84615384615384,-127
161.53846153846155,-134
169.23076923076923,-155
176.92307692307693,-172
184.6153846153846,-162
192.30769230769232,-151
200.0,-162
207.6923076923077,-172
215.3846153846154,-162
223.0769230769231,-160
230.76923076923077,-165
238.46153846153848,-167
246.15384615384616,-162
253.84615384615384,-155
261.53846153846155,-160
269.2307692307692,-184
276.9230769230769,-247
284.61538461538464,-375
292.3076923076923,-375
300.0,-44
307.6923076923077,651
315.3846153846154,1654
323.0769230769231,2168
330.7692307692308,1264
338.46153846153845,-160
346.1538461538462,-556
353.84615384615387,-297
361.53846153846155,-349
369.2307692307692,-476
376.9230769230769,-389
384.61538461538464,-351
392.3076923076923,-382
400.0,-346
407.6923076923077,-309
415.3846153846154,-304
423.0769230769231,-297
430.7692307692308,-285
438.46153846153845,-266
446.1538461538462,-252
453.84615384615387,-247
461.53846153846155,-224
469.2307692307692,-198
476.92307692307696,-193
484.61538461538464,-181
492.3076923076923,-151
500.0,-122
507.6923076923077,-89
515.3846153846154,-61
523.0769230769231,-49
530.7692307692308,-30
538.4615384615385,14
546.1538461538462,37
553.8461538461538,44
561.5384615384615,56
569.2307692307693,40
576.9230769230769,-14
584.6153846153846,-75
592.3076923076924,-127
600.0,-186
607.6923076923077,-240
615.3846153846154,-259
623.0769230769231,-266
630.7692307692308,-292
638.4615384615385,-302
646.1538461538462,-280
653.8461538461538,-264
661.5384615384615,-261
669.2307692307693,-247
676.9230769230769,-228
684.6153846153846,-221
692.3076923076924,-228
700.0,-228
707.6923076923077,-202
715.3846153846154,-198
723.0769230769231,-210
730.7692307692308,-200
738.4615384615385,-181
746.1538461538462,-174
753.8461538461538,-174
761.5384615384615,-184
769.2307692307693,-195
776.9230769230769,-193
784.6153846153846,-186
792.3076923076924,-181
800.0,-177
807.6923076923077,-177
815.3846153846154,-179
823.0769230769231,-174
830.7692307692308,-174
838.4615384615385,-184
846.1538461538462,-184
853.8461538461539,-169
861.5384615384615,-167
869.2307692307693,-174
876.9230769230769,-181
884.6153846153846,-174
892.3076923076924,-162
900.0,-169
907.6923076923077,-177
915.3846153846154,-167
923.0769230769231,-162
930.7692307692308,-162
938.4615384615385,-162
946.1538461538462,-172
953.8461538461539,-172
961.5384615384615,-162
969.2307692307693,-155
976.9230769230769,-160
984.6153846153846,-174
992.3076923076924,-177
1000.0,-165
1007.6923076923077,-153
1015.3846153846154,-151
1023.0769230769231,-151
1030.7692307692307,-153
1038.4615384615386,-162
1046.1538461538462,-158
1053.8461538461538,-143
1061.5384615384617,-141
1069.2307692307693,-165
1076.923076923077,-177
1084.6153846153848,-148
1092.3076923076924,-129
1100.0,-134
1107.6923076923076,-115
1115.3846153846155,-101
1123.076923076923,-132
1130.7692307692307,-153
1138.4615384615386,-143
1146.1538461538462,-146
1153.8461538461538,-155
1161.5384615384617,-139
1169.2307692307693,-139
1176.923076923077,-158
1184.6153846153848,-153
1192.3076923076924,-146
1200.0,-141
1207.6923076923076,-139
1215.3846153846155,-165
1223.076923076923,-195
1230.7692307692307,-233
1238.4615384615386,-346
1246.1538461538462,-391
1253.8461538461538,-122
1261.5384615384617,535
1269.2307692307693,1548
1276.923076923077,2223
1284.6153846153848,1515
1292.3076923076924,30
1300.0,-559
1307.6923076923076,-304
1315.3846153846155,-290
1323.076923076923,-448
1330.7692307692307,-401
1338.4615384615386,-349
1346.1538461538462,-365
1353.8461538461538,-342
1361.5384615384617,-311
1369.2307692307693,-302
1376.923076923077,-276
1384.6153846153848,-252
1392.3076923076924,-243
1400.0,-231
1407.6923076923076,-224
1415.3846153846155,-228
1423.076923076923,-207
1430.7692307692307,-169
1438.4615384615386,-162
1446.1538461538462,-160
1453.8461538461538,-143
1461.5384615384617,-113
1469.2307692307693,-77
1476.923076923077,-47
1484.6153846153848,-11
1492.3076923076924,21
1500.0,33
1507.6923076923076,35
1515.3846153846155,49
1523.076923076923,56
1530.7692307692307,11
1538.4615384615386,-61
1546.1538461538462,-110
1553.8461538461538,-155
1561.5384615384617,-207
1569.2307692307693,-245
1576.923076923077,-266
1584.6153846153848,-271
1592.3076923076924,-264
1600.0,-264
1607.6923076923076,-257
1615.3846153846155,-247
1623.076923076923,-252
1630.7692307692307,-243
1638.4615384615386,-214
1646.1538461538462,-205
1653.8461538461538,-214
1661.5384615384617,-210
1669.2307692307693,-200
1676.923076923077,-191
1684.6153846153848,-186
1692.3076923076924,-184
1700.0,-188
1707.6923076923078,-184
1715.3846153846155,-174
1723.076923076923,-179
1730.7692307692307,-186
1738.4615384615386,-179
1746.1538461538462,-174
1753.8461538461538,-193
1761.5384615384617,-205
1769.2307692307693,-195
1776.923076923077,-184
1784.6153846153848,-181
1792.3076923076924,-186
1800.0,-188
1807.6923076923078,-179
1815.3846153846155,-172
1823.076923076923,-172
1830.7692307692307,-172
1838.4615384615386,-177
1846.1538461538462,-169
1853.8461538461538,-160
1861.5384615384617,-174
1869.2307692307693,-179
1876.923076923077,-162
1884.6153846153848,-158
1892.3076923076924,-167
1900.0,-165
1907.6923076923078,-155
1915.3846153846155,-155
1923.076923076923,-155
1930.7692307692307,-148
1938.4615384615386,-151
1946.1538461538462,-165
1953.8461538461538,-172
1961.5384615384617,-162
1969.2307692307693,-153
1976.923076923077,-158
1984.6153846153848,-165
1992.3076923076924,-167
2000.0,-174
2007.6923076923078,-165
2015.3846153846155,-129
2023.076923076923,-115
2030.7692307692307,-129
2038.4615384615386,-120
2046.1538461538462,-108
2053.846153846154,-127
2061.5384615384614,-143
2069.2307692307695,-141
2076.923076923077,-141
2084.6153846153848,-146
2092.3076923076924,-146
2100.0,-143
2107.6923076923076,-143
2115.3846153846152,-151
2123.0769230769233,-155
2130.769230769231,-151
2138.4615384615386,-143
2146.153846153846,-143
2153.846153846154,-143
2161.5384615384614,-174
2169.2307692307695,-299
2176.923076923077,-396
2184.6153846153848,-226
2192.3076923076924,290
2200.0,1196
2207.6923076923076,2100
2215.3846153846152,1895
2223.0769230769233,493
2230.769230769231,-493
2238.4615384615386,-394
2246.153846153846,-257
2253.846153846154,-422
2261.5384615384614,-424
2269.2307692307695,-339
2276.923076923077,-358
2284.6153846153848,-356
2292.3076923076924,-316
2300.0,-316
2307.6923076923076,-299
2315.3846153846152,-257
2323.0769230769233,-250
2330.769230769231,-257
2338.4615384615386,-231
2346.153846153846,-207
2353.846153846154,-198
2361.5384615384614,-184
2369.2307692307695,-167
2376.923076923077,-151
2384.6153846153848,-127
2392.3076923076924,-108
2400.0,-82
2407.6923076923076,-47
2415.3846153846152,-14
2423.0769230769233,11
2430.769230769231,35
2438.4615384615386,51
2446.153846153846,63
2453.846153846154,59
2461.5384615384614,16
2469.2307692307695,-49
2476.923076923077,-99
2484.6153846153848,-148
2492.3076923076924,-205
2500.0,-245
2507.6923076923076,-254
2515.3846153846152,-261
2523.0769230769233,-266
2530.769230769231,-266
2538.4615384615386,-257
2546.153846153846,-250
2553.846153846154,-247
2561.5384615384614,-236
2569.2307692307695,-224
2576.923076923077,-221
2584.6153846153848,-212
2592.3076923076924,-198
2600.0,-193
2607.6923076923076,-198
2615.3846153846152,-193
2623.0769230769233,-188
2630.769230769231,-186
2638.4615384615386,-179
2646.153846153846,-177
2653.846153846154,-181
2661.5384615384614,-179
2669.2307692307695,-174
2676.923076923077,-174
2684.6153846153848,-181
2692.3076923076924,-184
2700.0,-184
2707.6923076923076,-181
2715.3846153846152,-177
2723.0769230769233,-172
2730.769230769231,-172
2738.4615384615386,-177
2746.153846153846,-181
2753.846153846154,-174
2761.5384615384614,-165
2769.2307692307695,-169
2776.923076923077,-174
2784.6153846153848,-172
2792.3076923076924,-172
2800.0,-169
2807.6923076923076,-160
2815.3846153846152,-155
2823.0769230769233,-162
2830.769230769231,-177
2838.4615384615386,-186
2846.153846153846,-177
2853.846153846154,-162
2861.5384615384614,-165
2869.2307692307695,-165
2876.923076923077,-160
2884.6153846153848,-160
2892.3076923076924,-158
2900.0,-151
2907.6923076923076,-151
2915.3846153846152,-153
2923.0769230769233,-155
2930.769230769231,-172
2938.4615384615386,-177
2946.153846153846,-158
2953.846153846154,-136
2961.5384615384614,-132
2969.2307692307695,-132
2976.923076923077,-113
2984.6153846153848,-108
2992.3076923076924,-141
3000.0,-155
3007.6923076923076,-143
3015.3846153846152,-141
3023.0769230769233,-155
3030.769230769231,-153
3038.4615384615386,-134
3046.153846153846,-134
3053.846153846154,-148
3061.5384615384614,-158
3069.2307692307695,-155
3076.923076923077,-148
3084.6153846153848,-143
3092.3076923076924,-146
3100.0,-174
3107.6923076923076,-285
3115.3846153846152,-387
3123.0769230769233,-228
3130.769230769231,280
3138.4615384615386,1172
3146.153846153846,2088
3153.846153846154,1923
3161.5384615384614,512
3169.2307692307695,-509
3176.923076923077,-401
3184.6153846153848,-238
3192.3076923076924,-408
3200.0,-417
3207.6923076923076,-325
3215.3846153846152,-346
3223.0769230769233,-349
3230.769230769231,-299
3238.4615384615386,-285
3246.153846153846,-280
3253.846153846154,-254
3261.5384615384614,-236
3269.2307692307695,-226
3276.923076923077,-207
3284.6153846153848,-193
3292.3076923076924,-191
3300.0,-174
3307.6923076923076,-153
3315.3846153846157,-148
3323.0769230769233,-129
3330.769230769231,-92
3338.4615384615386,-66
3346.153846153846,-37
3353.846153846154,-2
3361.5384615384614,21
3369.2307692307695,40
3376.923076923077,66
3384.6153846153848,80
3392.3076923076924,73
3400.0,44
3407.6923076923076,-11
3415.3846153846157,-87
3423.0769230769233,-153
3430.769230769231,-200
3438.4615384615386,-233
3446.153846153846,-254
3453.846153846154,-266
3461.5384615384614,-266
3469.2307692307695,-266
3476.923076923077,-271
3484.6153846153848,-254
3492.3076923076924,-233
3500.0,-233
3507.6923076923076,-226
3515.3846153846157,-210
3523.0769230769233,-207
3530.769230769231,-205
3538.4615384615386,-188
3546.153846153846,-174
3553.846153846154,-179
3561.5384615384614,-188
3569.2307692307695,-179
3576.923076923077,-167
3584.6153846153848,-165
3592.3076923076924,-162
3600.0,-162
3607.6923076923076,-165
3615.3846153846157,-162
3623.0769230769233,-160
3630.769230769231,-160
3638.4615384615386,-158
3646.153846153846,-158
3653.846153846154,-155
3661.5384615384614,-153
3669.2307692307695,-155
3676.923076923077,-148
3684.6153846153848,-146
3692.3076923076924,-158
3700.0,-155
3707.6923076923076,-143
3715.3846153846157,-148
3723.0769230769233,-148
3730.769230769231,-139
3738.4615384615386,-146
3746.153846153846,-148
3753.846153846154,-139
3761.5384615384614,-141
3769.2307692307695,-139
3776.923076923077,-132
3784.6153846153848,-139
3792.3076923076924,-146
3800.0,-146
3807.6923076923076,-151
3815.3846153846157,-148
3823.0769230769233,-129
3830.769230769231,-118
3838.4615384615386,-113
3846.153846153846,-103
3853.846153846154,-110
3861.5384615384614,-129
3869.2307692307695,-141
3876.923076923077,-143
3884.6153846153848,-139
3892.3076923076924,-134
3900.0,-136
3907.6923076923076,-143
3915.3846153846157,-146
3923.0769230769233,-148
3930.769230769231,-146
3938.4615384615386,-146
3946.153846153846,-151
3953.846153846154,-153
3961.5384615384614,-165
3969.2307692307695,-221
3976.923076923077,-351
3984.6153846153848,-415
3992.3076923076924,-172
4000.0,462
4007.6923076923076,1463
4015.3846153846157,2201
4023.0769230769233,1597
4030.769230769231,94
4038.4615384615386,-573
4046.153846153846,-318
4053.846153846154,-283
4061.5384615384614,-448
4069.2307692307695,-389
4076.923076923077,-335
4084.6153846153848,-375
4092.3076923076924,-351
4100.0,-304
4107.692307692308,-295
4115.384615384615,-283
4123.076923076923,-261
4130.7692307692305,-247
4138.461538461539,-236
4146.153846153847,-221
4153.846153846154,-198
4161.538461538462,-181
4169.2307692307695,-191
4176.923076923077,-184
4184.615384615385,-148
4192.307692307692,-122
4200.0,-103
4207.692307692308,-73
4215.384615384615,-44
4223.076923076923,-23
4230.7692307692305,7
4238.461538461539,40
4246.153846153847,59
4253.846153846154,54
4261.538461538462,37
4269.2307692307695,0
4276.923076923077,-68
4284.615384615385,-139
4292.307692307692,-195
4300.0,-233
4307.692307692308,-257
4315.384615384615,-276
4323.076923076923,-283
4330.7692307692305,-278
4338.461538461539,-278
4346.153846153847,-269
4353.846153846154,-257
4361.538461538462,-261
4369.2307692307695,-264
4376.923076923077,-243
4384.615384615385,-224
4392.307692307692,-219
4400.0,-214
4407.692307692308,-214
4415.384615384615,-214
4423.076923076923,-205
4430.7692307692305,-198
4438.461538461539,-195
4446.153846153847,-193
4453.846153846154,-191
4461.538461538462,-195
4469.2307692307695,-207
4476.923076923077,-210
4484.615384615385,-202
4492.307692307692,-193
4500.0,-193
4507.692307692308,-195
4515.384615384615,-198
4523.076923076923,-195
4530.7692307692305,-191
4538.461538461539,-191
4546.153846153847,-198
4553.846153846154,-200
4561.538461538462,-184
4569.2307692307695,-174
4576.923076923077,-188
4584.615384615385,-193
4592.307692307692,-177
4600.0,-174
4607.692307692308,-179
4615.384615384615,-167
4623.076923076923,-160
4630.7692307692305,-167
4638.461538461539,-165
4646.153846153847,-160
4653.846153846154,-169
4661.538461538462,-167
4669.2307692307695,-165
4676.923076923077,-184
4684.615384615385,-179
4692.307692307692,-139
4700.0,-118
4707.692307692308,-122
4715.384615384615,-118
4723.076923076923,-115
4730.7692307692305,-139
4738.461538461539,-158
4746.153846153847,-151
4753.846153846154,-143
4761.538461538462,-141
4769.2307692307695,-132
4776.923076923077,-141
4784.615384615385,-162
4792.307692307692,-160
4800.0,-141
4807.692307692308,-148
4815.384615384615,-158
4823.076923076923,-151
4830.7692307692305,-146
4838.461538461539,-172
4846.153846153847,-271
4853.846153846154,-384
4861.538461538462,-276
4869.2307692307695,188
4876.923076923077,1052
4884.615384615385,2020
4892.307692307692,2008
4900.0,677
4907.692307692308,-443
4915.384615384615,-436
4923.076923076923,-250
4930.7692307692305,-396
4938.461538461539,-429
4946.153846153847,-344
4953.846153846154,-351
4961.538461538462,-361
4969.2307692307695,-316
4976.923076923077,-297
4984.615384615385,-302
4992.307692307692,-285
5000.0,-259
5007.692307692308,-240
5015.384615384615,-224
5023.076923076923,-207
5030.7692307692305,-195
5038.461538461539,-188
5046.153846153847,-169
5053.846153846154,-151
5061.538461538462,-129
5069.2307692307695,-103
5076.923076923077,-82
5084.615384615385,-54
5092.307692307692,-23
5100.0,7
5107.692307692308,33
5115.384615384615,61
5123.076923076923,80
5130.7692307692305,63
5138.461538461539,9
5146.153846153847,-42
5153.846153846154,-89
5161.538461538462,-148
5169.2307692307695,-193
5176.923076923077,-224
5184.615384615385,-254
5192.307692307692,-269
5200.0,-259
5207.692307692308,-252
5215.384615384615,-257
5223.076923076923,-257
5230.7692307692305,-243
5238.461538461539,-224
5246.153846153847,-217
5253.846153846154,-214
5261.538461538462,-210
5269.2307692307695,-205
5276.923076923077,-195
5284.615384615385,-186
5292.307692307692,-186
5300.0,-181
5307.692307692308,-174
5315.384615384615,-172
5323.076923076923,-179
5330.7692307692305,-177
5338.461538461539,-172
5346.153846153847,-181
5353.846153846154,-184
5361.538461538462,-169
5369.2307692307695,-162
5376.923076923077,-172
5384.615384615385,-177
5392.307692307692,-169
5400.0,-172
5407.692307692308,-177
5415.384615384615,-172
5423.076923076923,-167
5430.7692307692305,-167
5438.461538461539,-169
5446.153846153847,-165
5453.846153846154,-162
5461.538461538462,-162
5469.2307692307695,-165
5476.923076923077,-158
5484.615384615385,-158
5492.307692307692,-169
5500.0,-169
5507.692307692308,-158
5515.384615384615,-155
5523.076923076923,-160
5530.7692307692305,-155
5538.461538461539,-148
5546.153846153847,-148
5553.846153846154,-155
5561.538461538462,-169
5569.2307692307695,-172
5576.923076923077,-148
5584.615384615385,-125
5592.307692307692,-122
5600.0,-115
5607.692307692308,-101
5615.384615384615,-115
5623.076923076923,-136
5630.7692307692305,-143
5638.461538461539,-151
5646.153846153847,-146
5653.846153846154,-134
5661.538461538462,-139
5669.2307692307695,-153
5676.923076923077,-165
5684.615384615385,-160
5692.307692307692,-151
5700.0,-141
5707.692307692308,-139
5715.384615384615,-153
5723.076923076923,-158
5730.7692307692305,-177
5738.461538461539,-287
5746.153846153847,-384
5753.846153846154,-221
5761.538461538462,299
5769.2307692307695,1217
5776.923076923077,2121
5784.615384615385,1888
5792.307692307692,455
5800.0,-512
5807.692307692308,-379
5815.384615384615,-245
5823.076923076923,-415
5830.7692307692305,-408
5838.461538461539,-330
5846.153846153847,-351
5853.846153846154,-344
5861.538461538462,-297
5869.2307692307695,-283
5876.923076923077,-278
5884.615384615385,-261
5892.307692307692,-243
5900.0,-231
5907.692307692308,-217
5915.384615384615,-198
5923.076923076923,-186
5930.7692307692305,-177
5938.461538461539,-165
5946.153846153847,-143
5953.846153846154,-118
5961.538461538462,-89
5969.2307692307695,-66
5976.923076923077,-42
5984.615384615385,-9
5992.307692307692,14
6000.0,28
6007.692307692308,44
6015.384615384615,68
6023.076923076923,66
6030.7692307692305,25
6038.461538461539,-35
6046.153846153847,-94
6053.846153846154,-139
6061.538461538462,-181
6069.2307692307695,-231
6076.923076923077,-261
6084.615384615385,-257
6092.307692307692,-254
6100.0,-259
6107.692307692308,-252
6115.384615384615,-247
6123.076923076923,-250
6130.7692307692305,-233
6138.461538461539,-210
6146.153846153847,-200
6153.846153846154,-202
6161.538461538462,-198
6169.2307692307695,-195
6176.923076923077,-191
6184.615384615385,-177
6192.307692307692,-167
6200.0,-181
6207.692307692308,-193
6215.384615384615,-193
6223.076923076923,-191
6230.7692307692305,-181
6238.461538461539,-174
6246.153846153847,-172
6253.846153846154,-172
6261.538461538462,-172
6269.2307692307695,-174
6276.923076923077,-172
6284.615384615385,-172
6292.307692307692,-174
6300.0,-169
6307.692307692308,-160
6315.384615384615,-162
6323.076923076923,-169
6330.7692307692305,-167
6338.461538461539,-158
6346.153846153847,-155
6353.846153846154,-158
6361.538461538462,-158
6369.2307692307695,-158
6376.923076923077,-160
6384.615384615385,-158
6392.307692307692,-153
6400.0,-148
6407.692307692308,-141
6415.384615384615,-139
6423.076923076923,-151
6430.7692307692305,-153
6438.461538461539,-146
6446.153846153847,-151
6453.846153846154,-160
6461.538461538462,-148
6469.2307692307695,-141
6476.923076923077,-143
6484.615384615385,-125
6492.307692307692,-92
6500.0,-101
6507.692307692308,-134
6515.384615384615,-136
6523.076923076923,-127
6530.7692307692305,-134
6538.461538461539,-136
6546.153846153847,-134
6553.846153846154,-136
6561.538461538462,-134
6569.2307692307695,-134
6576.923076923077,-143
6584.615384615385,-136
6592.307692307692,-132
6600.0,-136
6607.692307692308,-127
6615.384615384615,-127
6623.076923076923,-177
6630.769230769231,-287
6638.461538461539,-387
6646.153846153847,-261
6653.846153846154,247
6661.538461538462,1177
6669.2307692307695,2128
6676.923076923077,1998
6684.615384615385,578
6692.307692307692,-486
6700.0,-396
6707.692307692308,-226
6715.384615384615,-403
6723.076923076923,-405
6730.769230769231,-302
6738.461538461539,-342
6746.153846153847,-354
6753.846153846154,-297
6761.538461538462,-283
6769.2307692307695,-278
6776.923076923077,-247
6784.615384615385,-231
6792.307692307692,-233
6800.0,-231
6807.692307692308,-214
6815.384615384615,-188
6823.076923076923,-177
6830.769230769231,-162
6838.461538461539,-141
6846.153846153847,-122
6853.846153846154,-101
6861.538461538462,-73
6869.2307692307695,-40
6876.923076923077,-9
6884.615384615385,18
6892.307692307692,37
6900.0,61
6907.692307692308,82
6915.384615384615,77
6923.076923076923,42
6930.769230769231,-18
6938.461538461539,-89
6946.153846153847,-146
6953.846153846154,-191
6961.538461538462,-240
6969.2307692307695,-264
6976.923076923077,-261
6984.615384615385,-269
6992.307692307692,-278
7000.0,-273
7007.692307692308,-269
7015.384615384615,-264
7023.076923076923,-243
7030.769230769231,-233
7038.461538461539,-236
7046.153846153847,-228
7053.846153846154,-217
7061.538461538462,-214
7069.2307692307695,-210
7076.923076923077,-200
7084.615384615385,-198
7092.307692307692,-191
7100.0,-184
7107.692307692308,-188
7115.384615384615,-195
7123.076923076923,-191
7130.769230769231,-186
7138.461538461539,-179
7146.153846153847,-181
7153.846153846154,-202
7161.538461538462,-205
7169.2307692307695,-186
7176.923076923077,-181
7184.615384615385,-186
7192.307692307692,-186
7200.0,-186
7207.692307692308,-184
7215.384615384615,-177
7223.076923076923,-179
7230.769230769231,-184
7238.461538461539,-177
7246.153846153847,-177
7253.846153846154,-174
7261.538461538462,-169
7269.2307692307695,-177
7276.923076923077,-177
7284.615384615385,-165
7292.307692307692,-169
7300.0,-181
7307.692307692308,-186
7315.384615384615,-184
7323.076923076923,-167
7330.769230769231,-139
7338.461538461539,-132
7346.153846153847,-127
7353.846153846154,-120
7361.538461538462,-139
7369.2307692307695,-167
7376.923076923077,-172
7384.615384615385,-169
7392.307692307692,-172
7400.0,-165
7407.692307692308,-162
7415.384615384615,-169
7423.076923076923,-165
7430.769230769231,-158
7438.461538461539,-158
7446.153846153847,-162
7453.846153846154,-160
7461.538461538462,-158
7469.2307692307695,-167
7476.923076923077,-224
7484.615384615385,-349
7492.307692307692,-396
7500.0,-148
7507.692307692308,481
7515.384615384615,1486
7523.076923076923,2220
7530.769230769231,1607
7538.461538461539,110
7546.153846153847,-561
7553.846153846154,-330
7561.538461538462,-309
7569.2307692307695,-464
7576.923076923077,-398
7584.615384615385,-339
7592.307692307692,-375
7600.0,-351
7607.692307692308,-311
7615.384615384615,-309
7623.076923076923,-292
7630.769230769231,-266
7638.461538461539,-259
7646.153846153847,-247
7653.846153846154,-221
7661.538461538462,-205
7669.2307692307695,-205
7676.923076923077,-198
7684.615384615385,-172
7692.307692307692,-143
7700.0,-134
7707.692307692308,-113
7715.384615384615,-73
7723.076923076923,-37
7730.769230769231,-16
7738.461538461539,7
7746.153846153847,35
7753.846153846154,56
7761.538461538462,61
7769.2307692307695,42
7776.923076923077,-7
7784.615384615385,-68
7792.307692307692,-122
7800.0,-167
7807.692307692308,-217
7815.384615384615,-259
7823.076923076923,-271
7830.769230769231,-269
7838.461538461539,-269
7846.153846153847,-271
7853.846153846154,-269
7861.538461538462,-257
7869.2307692307695,-245
7876.923076923077,-238
7884.615384615385,-231
7892.307692307692,-219
7900.0,-210
7907.692307692308,-210
7915.384615384615,-212
7923.076923076923,-214
7930.769230769231,-210
7938.461538461539,-198
7946.153846153847,-193
7953.846153846154,-188
7961.538461538462,-186
7969.2307692307695,-191
7976.923076923077,-191
7984.615384615385,-181
7992.307692307692,-179
8000.0,-181
8007.692307692308,-177
8015.384615384615,-188
8023.076923076923,-198
8030.769230769231,-181
8038.461538461539,-174
8046.153846153847,-184
8053.846153846154,-181
8061.538461538462,-172
8069.2307692307695,-172
8076.923076923077,-169
8084.615384615385,-165
8092.307692307692,-165
8100.0,-165
8107.692307692308,-167
8115.384615384615,-167
8123.076923076923,-158
8130.769230769231,-158
8138.461538461539,-167
8146.153846153847,-158
8153.846153846154,-153
8161.538461538462,-158
8169.2307692307695,-162
8176.923076923077,-165
8184.615384615385,-167
8192.307692307693,-155
8200.0,-129
8207.692307692309,-110
8215.384615384615,-106
8223.076923076924,-110
8230.76923076923,-125
8238.461538461539,-139
8246.153846153846,-148
8253.846153846154,-143
8261.538461538461,-136
8269.23076923077,-136
8276.923076923078,-146
8284.615384615385,-148
8292.307692307693,-141
8300.0,-141
8307.692307692309,-151
8315.384615384615,-146
8323.076923076924,-139
8330.76923076923,-146
8338.461538461539,-153
8346.153846153846,-181
8353.846153846154,-295
8361.538461538461,-382
8369.23076923077,-207
8376.923076923078,328
8384.615384615385,1253
8392.307692307693,2135
8400.0,1836
8407.692307692309,377
8415.384615384615,-531
8423.076923076924,-370
8430.76923076923,-259
8438.461538461539,-427
8446.153846153846,-403
8453.846153846154,-325
8461.538461538461,-358
8469.23076923077,-351
8476.923076923078,-297
8484.615384615385,-283
8492.307692307693,-280
8500.0,-264
8507.692307692309,-259
8515.384615384615,-252
8523.076923076924,-228
8530.76923076923,-212
8538.461538461539,-200
8546.153846153846,-179
8553.846153846154,-158
8561.538461538461,-141
8569.23076923077,-125
8576.923076923078,-99
8584.615384615385,-63
8592.307692307693,-33
8600.0,-11
8607.692307692309,18
8615.384615384615,51
8623.076923076924,68
8630.76923076923,73
8638.461538461539,68
8646.153846153846,35
8653.846153846154,-21
8661.538461538461,-87
8669.23076923077,-148
8676.923076923078,-188
8684.615384615385,-217
8692.307692307693,-247
8700.0,-261
8707.692307692309,-254
8715.384615384615,-250
8723.076923076924,-250
8730.76923076923,-243
8738.461538461539,-238
8746.153846153846,-228
8753.846153846154,-212
8761.538461538461,-198
8769.23076923077,-193
8776.923076923078,-198
8784.615384615385,-195
8792.307692307693,-186
8800.0,-181
8807.692307692309,-177
8815.384615384615,-172
8823.076923076924,-172
8830.76923076923,-179
8838.461538461539,-177
8846.153846153846,-169
8853.846153846154,-169
8861.538461538461,-172
8869.23076923077,-169
8876.923076923078,-169
8884.615384615385,-172
8892.307692307693,-167
8900.0,-162
8907.692307692309,-177
8915.384615384615,-177
8923.076923076924,-162
8930.76923076923,-162
8938.461538461539,-169
8946.153846153846,-160
8953.846153846154,-155
8961.538461538461,-167
8969.23076923077,-167
8976.923076923078,-153
8984.615384615385,-155
8992.307692307693,-158
9000.0,-158
9007.692307692309,-160
9015.384615384615,-155
9023.076923076924,-151
9030.76923076923,-158
9038.461538461539,-155
9046.153846153846,-153
9053.846153846154,-165
9061.538461538461,-165
9069.23076923077,-160
9076.923076923078,-158
9084.615384615385,-155
9092.307692307693,-148
9100.0,-127
9107.692307692309,-106
9115.384615384615,-94
9123.076923076924,-99
9130.76923076923,-110
9138.461538461539,-120
9146.153846153846,-129
9153.846153846154,-132
9161.538461538461,-132
9169.23076923077,-127
9176.923076923078,-122
9184.615384615385,-125
9192.307692307693,-132
9200.0,-139
9207.692307692309,-134
9215.384615384615,-120
9223.076923076924,-118
9230.76923076923,-129
9238.461538461539,-136
9246.153846153846,-151
9253.846153846154,-233
9261.538461538461,-354
9269.23076923077,-283
9276.923076923078,129
9284.615384615385,944
9292.307692307693,1963
9300.0,2159
9307.692307692309,929
9315.384615384615,-349
9323.076923076924,-460
9330.76923076923,-228
9338.461538461539,-361
9346.153846153846,-420
9353.846153846154,-313
9361.538461538461,-320
9369.23076923077,-339
9376.923076923078,-290
9384.615384615385,-278
9392.307692307693,-278
9400.0,-240
9407.692307692309,-224
9415.384615384615,-224
9423.076923076924,-202
9430.76923076923,-184
9438.461538461539,-179
9446.153846153846,-160
9453.846153846154,-139
9461.538461538461,-132
9469.23076923077,-115
9476.923076923078,-87
9484.615384615385,-59
9492.307692307693,-30
9500.0,-4
9507.692307692309,30
9515.384615384615,66
9523.076923076924,77
9530.76923076923,82
9538.461538461539,89
9546.153846153846,70
9553.846153846154,14
9561.538461538461,-47
9569.23076923077,-99
9576.923076923078,-148
9584.615384615385,-205
9592.307692307693,-252
9600.0,-254
9607.692307692309,-245
9615.384615384615,-252
9623.076923076924,-245
9630.76923076923,-231
9638.461538461539,-228
9646.153846153846,-224
9653.846153846154,-212
9661.538461538461,-198
9669.23076923077,-188
9676.923076923078,-179
9684.615384615385,-181
9692.307692307693,-181
9700.0,-172
9707.692307692309,-167
9715.384615384615,-167
9723.076923076924,-165
9730.76923076923,-165
9738.461538461539,-165
9746.153846153846,-160
9753.846153846154,-158
9761.538461538461,-160
9769.23076923077,-160
9776.923076923078,-158
9784.615384615385,-158
9792.307692307693,-167
9800.0,-167
9807.692307692309,-155
9815.384615384615,-158
9823.076923076924,-165
9830.76923076923,-160
9838.461538461539,-153
9846.153846153846,-155
9853.846153846154,-155
9861.538461538461,-151
9869.23076923077,-148
9876.923076923078,-155
9884.615384615385,-153
9892.307692307693,-143
9900.0,-146
9907.692307692309,-148
9915.384615384615,-143
9923.076923076924,-141
9930.76923076923,-136
9938.461538461539,-136
9946.153846153846,-148
9953.846153846154,-160
9961.538461538461,-160
9969.23076923077,-148
9976.923076923078,-122
9984.615384615385,-106
9992.307692307693,-106
10000.0,-103
10007.692307692309,-101
10015.384615384615,-113
10023.076923076924,-127
10030.76923076923,-134
10038.461538461539,-141
10046.153846153846,-141
10053.846153846154,-132
10061.538461538461,-127
10069.23076923077,-129
10076.923076923078,-136
10084.615384615385,-139
10092.307692307693,-139
10100.0,-136
10107.692307692309,-132
10115.384615384615,-129
10123.076923076924,-136
10130.76923076923,-177
10138.461538461539,-283
10146.153846153846,-377
10153.846153846154,-243
10161.538461538461,247
10169.23076923077,1146
10176.923076923078,2109
10184.615384615385,2029
10192.307692307693,641
10200.0,-453
10207.692307692309,-401
10215.384615384615,-231
10223.076923076924,-396
10230.76923076923,-415
10238.461538461539,-320
10246.153846153846,-332
10253.846153846154,-342
10261.538461538461,-297
10269.23076923077,-278
10276.923076923078,-278
10284.615384615385,-257
10292.307692307693,-233
10300.0,-219
10307.692307692309,-205
10315.384615384615,-193
10323.076923076924,-188
10330.76923076923,-172
10338.461538461539,-151
10346.153846153846,-134
10353.846153846154,-115
10361.538461538461,-92
10369.23076923077,-59
10376.923076923078,-28
10384.615384615385,-7
10392.307692307693,14
10400.0,44
10407.692307692309,70
10415.384615384615,80
10423.076923076924,75
10430.76923076923,44
10438.461538461539,-7
10446.153846153846,-68
10453.846153846154,-127
10461.538461538461,-169
10469.23076923077,-202
10476.923076923078,-236
10484.615384615385,-245
10492.307692307693,-247
10500.0,-254
10507.692307692309,-243
10515.384615384615,-231
10523.076923076924,-231
10530.76923076923,-214
10538.461538461539,-202
10546.153846153846,-210
10553.846153846154,-210
10561.538461538461,-193
10569.23076923077,-181
10576.923076923078,-177
10584.615384615385,-174
10592.307692307693,-174
10600.0,-169
10607.692307692309,-162
10615.384615384615,-162
10623.076923076924,-160
10630.76923076923,-158
10638.461538461539,-162
10646.153846153846,-162
10653.846153846154,-153
10661.538461538461,-158
10669.23076923077,-167
10676.923076923078,-162
10684.615384615385,-160
10692.307692307693,-160
10700.0,-155
10707.692307692309,-158
10715.384615384615,-160
10723.076923076924,-158
10730.76923076923,-151
10738.461538461539,-146
10746.153846153846,-153
10753.846153846154,-162
10761.538461538461,-155
10769.23076923077,-151
10776.923076923078,-155
10784.615384615385,-153
10792.307692307693,-139
10800.0,-134
10807.692307692309,-143
10815.384615384615,-146
10823.076923076924,-136
10830.76923076923,-129
10838.461538461539,-129
10846.153846153846,-132
10853.846153846154,-139
10861.538461538461,-146
10869.23076923077,-143
10876.923076923078,-129
10884.615384615385,-115
10892.307692307693,-101
10900.0,-87
10907.692307692309,-77
10915.384615384615,-92
10923.076923076924,-118
10930.76923076923,-118
10938.461538461539,-120
10946.153846153846,-132
10953.846153846154,-125
10961.538461538461,-110
10969.23076923077,-118
10976.923076923078,-125
10984.615384615385,-122
10992.307692307693,-122
11000.0,-125
11007.692307692309,-122
11015.384615384615,-122
11023.076923076924,-122
11030.76923076923,-120
11038.461538461539,-177
11046.153846153846,-318
11053.846153846154,-370
11061.538461538461,-136
11069.23076923077,441
11076.923076923078,1404
11084.615384615385,2211
11092.307692307693,1741
11100.0,254
11107.692307692309,-521
11115.384615384615,-311
11123.076923076924,-252
11130.76923076923,-420
11138.461538461539,-372
11146.153846153846,-304
11153.846153846154,-335
11161.538461538461,-318
11169.23076923077,-287
11176.923076923078,-280
11184.615384615385,-261
11192.307692307693,-240
11200.0,-226
11207.692307692309,-210
11215.384615384615,-198
11223.076923076924,-186
11230.76923076923,-172
11238.461538461539,-153
11246.153846153846,-143
11253.846153846154,-132
11261.538461538461,-99
11269.23076923077,-66
11276.923076923078,-47
11284.615384615385,-28
11292.307692307693,-2
11300.0,23
11307.692307692309,44
11315.384615384615,75
11323.076923076924,96
11330.76923076923,77
11338.461538461539,37
11346.153846153846,-9
11353.846153846154,-73
11361.538461538461,-134
11369.23076923077,-172
11376.923076923078,-202
11384.615384615385,-228
11392.307692307693,-240
11400.0,-236
11407.692307692309,-228
11415.384615384615,-231
11423.076923076924,-236
11430.76923076923,-224
11438.461538461539,-207
11446.153846153846,-198
11453.846153846154,-191
11461.538461538461,-181
11469.23076923077,-177
11476.923076923078,-172
11484.615384615385,-167
11492.307692307693,-165
11500.0,-165
11507.692307692309,-160
11515.384615384615,-160
11523.076923076924,-158
11530.76923076923,-155
11538.461538461539,-155
11546.153846153846,-153
11553.846153846154,-158
11561.538461538461,-160
11569.23076923077,-158
11576.923076923078,-160
11584.615384615385,-160
11592.307692307693,-148
11600.0,-146
11607.692307692309,-155
11615.384615384615,-153
11623.076923076924,-139
11630.76923076923,-136
11638.461538461539,-141
11646.153846153846,-143
11653.846153846154,-141
11661.538461538461,-139
11669.23076923077,-139
11676.923076923078,-136
11684.615384615385,-125
11692.307692307693,-122
11700.0,-136
11707.692307692309,-136
11715.384615384615,-120
11723.076923076924,-122
11730.76923076923,-136
11738.461538461539,-132
11746.153846153846,-120
11753.846153846154,-122
11761.538461538461,-127
11769.23076923077,-127
11776.923076923078,-125
11784.615384615385,-120
11792.307692307693,-127
11800.0,-136
11807.692307692309,-122
11815.384615384615,-94
11823.076923076924,-89
11830.76923076923,-89
11838.461538461539,-89
11846.153846153846,-101
11853.846153846154,-115
11861.538461538461,-118
11869.23076923077,-113
11876.923076923078,-110
11884.615384615385,-108
11892.307692307693,-108
11900.0,-115
11907.692307692309,-115
11915.384615384615,-108
11923.076923076924,-110
11930.76923076923,-118
11938.461538461539,-115
11946.153846153846,-108
11953.846153846154,-110
11961.538461538461,-120
11969.23076923077,-179
11976.923076923078,-316
11984.615384615385,-339
11992.307692307693,-44
12000.0,623
12007.692307692309,1652
12015.384615384615,2298
12023.076923076924,1505
12030.76923076923,-7
12038.461538461539,-538
12046.153846153846,-261
12053.846153846154,-287
12061.538461538461,-448
12069.23076923077,-361
12076.923076923078,-309
12084.615384615385,-356
12092.307692307693,-323
12100.0,-273
12107.692307692309,-278
12115.384615384615,-269
12123.076923076924,-238
12130.76923076923,-224
12138.461538461539,-214
12146.153846153846,-200
12153.846153846154,-186
12161.538461538461,-174
12169.23076923077,-167
12176.923076923078,-155
12184.615384615385,-129
12192.307692307693,-103
12200.0,-84
12207.692307692309,-66
12215.384615384615,-37
12223.076923076924,-7
12230.76923076923,23
12238.461538461539,47
12246.153846153846,61
12253.846153846154,68
12261.538461538461,63
12269.23076923077,28
12276.923076923078,-30
12284.615384615385,-92
12292.307692307693,-151
12300.0,-191
12307.692307692309,-221
12315.384615384615,-250
12323.076923076924,-257
12330.76923076923,-257
12338.461538461539,-261
12346.153846153846,-257
12353.846153846154,-240
12361.538461538461,-228
12369.23076923077,-221
12376.923076923078,-217
12384.615384615385,-219
12392.307692307693,-212
12400.0,-195
12407.692307692309,-188
12415.384615384615,-193
12423.076923076924,-195
12430.76923076923,-198
12438.461538461539,-191
12446.153846153846,-179
12453.846153846154,-177
12461.538461538461,-174
12469.23076923077,-167
12476.923076923078,-174
12484.615384615385,-184
12492.307692307693,-177
12500.0,-165
12507.692307692309,-169
12515.384615384615,-179
12523.076923076924,-177
12530.76923076923,-169
12538.461538461539,-165
12546.153846153846,-167
12553.846153846154,-162
12561.538461538461,-162
12569.23076923077,-167
12576.923076923078,-172
12584.615384615385,-162
12592.307692307693,-153
12600.0,-155
12607.692307692309,-162
12615.384615384615,-160
12623.076923076924,-155
12630.76923076923,-148
12638.461538461539,-136
12646.153846153846,-136
12653.846153846154,-148
12661.538461538461,-153
12669.23076923077,-155
12676.923076923078,-162
12684.615384615385,-160
12692.307692307693,-151
12700.0,-134
12707.692307692309,-118
12715.384615384615,-108
12723.076923076924,-96
12730.76923076923,-101
12738.461538461539,-125
12746.153846153846,-136
12753.846153846154,-132
12761.538461538461,-134
12769.23076923077,-136
12776.923076923078,-129
12784.615384615385,-129
12792.307692307693,-141
12800.0,-139
12807.692307692309,-132
12815.384615384615,-127
12823.076923076924,-129
12830.76923076923,-134
12838.461538461539,-136
12846.153846153846,-136
12853.846153846154,-172
12861.538461538461,-283
12869.23076923077,-365
12876.923076923078,-202
12884.615384615385,330
12892.307692307693,1264
12900.0,2157
12907.692307692309,1892
12915.384615384615,448
12923.076923076924,-502
12930.76923076923,-365
12938.461538461539,-243
12946.153846153846,-415
12953.846153846154,-396
12961.538461538461,-318
12969.23076923077,-358
12976.923076923078,-349
12984.615384615385,-290
12992.307692307693,-278
13000.0,-269
13007.692307692309,-245
13015.384615384615,-231
13023.076923076924,-217
13030.76923076923,-200
13038.461538461539,-188
13046.153846153846,-177
13053.846153846154,-158
13061.538461538461,-141
13069.23076923077,-129
13076.923076923078,-115
13084.615384615385,-89
13092.307692307693,-56
13100.0,-23
13107.692307692309,7
13115.384615384615,37
13123.076923076924,54
13130.76923076923,73
13138.461538461539,94
13146.153846153846,87
13153.846153846154,51
13161.538461538463,2
13169.23076923077,-59
13176.923076923078,-118
13184.615384615385,-158
13192.307692307693,-188
13200.0,-210
13207.692307692309,-231
13215.384615384615,-245
13223.076923076924,-236
13230.76923076923,-221
13238.461538461539,-221
13246.153846153846,-217
13253.846153846154,-200
13261.538461538463,-191
13269.23076923077,-186
13276.923076923078,-177
13284.615384615385,-174
13292.307692307693,-174
13300.0,-162
13307.692307692309,-155
13315.384615384615,-165
13323.076923076924,-165
13330.76923076923,-155
13338.461538461539,-153
13346.153846153846,-151
13353.846153846154,-148
13361.538461538463,-151
13369.23076923077,-151
13376.923076923078,-146
13384.615384615385,-143
13392.307692307693,-148
13400.0,-155
13407.692307692309,-148
13415.384615384615,-136
13423.076923076924,-146
13430.76923076923,-158
13438.461538461539,-151
13446.153846153846,-136
13453.846153846154,-139
13461.538461538463,-146
13469.23076923077,-146
13476.923076923078,-134
13484.615384615385,-125
13492.307692307693,-134
13500.0,-151
13507.692307692309,-153
13515.384615384615,-143
13523.076923076924,-134
13530.76923076923,-129
13538.461538461539,-129
13546.153846153846,-129
13553.846153846154,-129
13561.538461538463,-127
13569.23076923077,-136
13576.923076923078,-153
13584.615384615385,-146
13592.307692307693,-115
13600.0,-94
13607.692307692309,-82
13615.384615384615,-73
13623.076923076924,-82
13630.76923076923,-96
13638.461538461539,-108
13646.153846153846,-118
13653.846153846154,-108
13661.538461538463,-103
13669.23076923077,-115
13676.923076923078,-115
13684.615384615385,-110
13692.307692307693,-110
13700.0,-115
13707.692307692309,-120
13715.384615384615,-113
13723.076923076924,-101
13730.76923076923,-108
13738.461538461539,-120
13746.153846153846,-127
13753.846153846154,-181
13761.538461538463,-309
13769.23076923077,-318
13776.923076923078,-2
13784.615384615385,700
13792.307692307693,1722
13800.0,2242
13807.692307692309,1326
13815.384615384615,-110
13823.076923076924,-497
13830.76923076923,-228
13838.461538461539,-285
13846.153846153846,-415
13853.846153846154,-325
13861.538461538463,-295
13869.23076923077,-337
13876.923076923078,-304
13884.615384615385,-254
13892.307692307693,-250
13900.0,-240
13907.692307692309,-221
13915.384615384615,-210
13923.076923076924,-191
13930.76923076923,-177
13938.461538461539,-174
13946.153846153846,-160
13953.846153846154,-139
13961.538461538463,-125
13969.23076923077,-101
13976.923076923078,-73
13984.615384615385,-51
13992.307692307693,-28
14000.0,0
14007.692307692309,30
14015.384615384615,73
14023.076923076924,101
14030.76923076923,99
14038.461538461539,106
14046.153846153846,103
14053.846153846154,56
14061.538461538463,-11
14069.23076923077,-70
14076.923076923078,-122
14084.615384615385,-179
14092.307692307693,-207
14100.0,-212
14107.692307692309,-228
14115.384615384615,-240
14123.076923076924,-224
14130.76923076923,-214
14138.461538461539,-224
14146.153846153846,-219
14153.846153846154,-188
14161.538461538463,-167
14169.23076923077,-177
14176.923076923078,-181
14184.615384615385,-174
14192.307692307693,-160
14200.0,-151
14207.692307692309,-148
14215.384615384615,-141
14223.076923076924,-132
14230.76923076923,-127
14238.461538461539,-136
14246.153846153846,-139
14253.846153846154,-129
14261.538461538463,-129
14269.23076923077,-146
14276.923076923078,-143
14284.615384615385,-129
14292.307692307693,-127
14300.0,-127
14307.692307692309,-127
14315.384615384615,-125
14323.076923076924,-120
14330.76923076923,-122
14338.461538461539,-127
14346.153846153846,-118
14353.846153846154,-110
14361.538461538463,-118
14369.23076923077,-127
14376.923076923078,-120
14384.615384615385,-110
14392.307692307693,-106
14400.0,-103
14407.692307692309,-110
14415.384615384615,-113
14423.076923076924,-101
14430.76923076923,-101
14438.461538461539,-106
14446.153846153846,-101
14453.846153846154,-101
14461.538461538463,-103
14469.23076923077,-99
14476.923076923078,-106
14484.615384615385,-115
14492.307692307693,-106
14500.0,-89
14507.692307692309,-77
14515.384615384615,-75
14523.076923076924,-70
14530.76923076923,-56
14538.461538461539,-59
14546.153846153846,-84
14553.846153846154,-99
14561.538461538463,-96
14569.23076923077,-92
14576.923076923078,-87
14584.615384615385,-103
14592.307692307693,-110
14600.0,-92
14607.692307692309,-92
14615.384615384615,-106
14623.076923076924,-103
14630.76923076923,-94
14638.461538461539,-89
14646.153846153846,-96
14653.846153846154,-115
14661.538461538463,-188
14669.23076923077,-342
14676.923076923078,-354
14684.615384615385,33
14692.307692307693,851
14700.0,1904
14707.692307692309,2293
14715.384615384615,1217
14723.076923076924,-200
14730.76923076923,-464
14738.461538461539,-184
14746.153846153846,-292
14753.846153846154,-405
14761.538461538463,-299
14769.23076923077,-290
14776.923076923078,-328
14784.615384615385,-276
14792.307692307693,-240
14800.0,-254
14807.692307692309,-236
14815.384615384615,-207
14823.076923076924,-198
14830.76923076923,-188
14838.461538461539,-169
14846.153846153846,-158
14853.846153846154,-148
14861.538461538463,-129
14869.23076923077,-106
14876.923076923078,-99
14884.615384615385,-89
14892.307692307693,-54
14900.0,-18
14907.692307692309,0
14915.384615384615,28
14923.076923076924,61
14930.76923076923,80
14938.461538461539,99
14946.153846153846,110
14953.846153846154,94
14961.538461538463,49
14969.23076923077,-2
14976.923076923078,-61
14984.615384615385,-129
14992.307692307693,-179
15000.0,-198
15007.692307692309,-210
15015.384615384615,-228
15023.076923076924,-233
15030.76923076923,-224
15038.461538461539,-221
15046.153846153846,-219
15053.846153846154,-202
15061.538461538463,-193
15069.23076923077,-188
15076.923076923078,-181
15084.615384615385,-177
15092.307692307693,-177
15100.0,-172
15107.692307692309,-167
15115.384615384615,-160
15123.076923076924,-153
15130.76923076923,-151
15138.461538461539,-151
15146.153846153846,-148
15153.846153846154,-148
15161.538461538463,-153
15169.23076923077,-153
15176.923076923078,-151
15184.615384615385,-148
15192.307692307693,-146
15200.0,-148
15207.692307692309,-155
15215.384615384615,-160
15223.076923076924,-162
15230.76923076923,-148
15238.461538461539,-141
15246.153846153846,-143
15253.846153846154,-146
15261.538461538463,-143
15269.23076923077,-141
15276.923076923078,-132
15284.615384615385,-125
15292.307692307693,-132
15300.0,-136
15307.692307692309,-127
15315.384615384615,-122
15323.076923076924,-127
15330.76923076923,-127
15338.461538461539,-127
15346.153846153846,-129
15353.846153846154,-136
15361.538461538463,-139
15369.23076923077,-132
15376.923076923078,-113
15384.615384615385,-94
15392.307692307693,-82
15400.0,-77
15407.692307692309,-82
15415.384615384615,-92
15423.076923076924,-103
15430.76923076923,-118
15438.461538461539,-118
15446.153846153846,-108
15453.846153846154,-113
15461.538461538463,-118
15469.23076923077,-110
15476.923076923078,-115
15484.615384615385,-127
15492.307692307693,-125
15500.0,-115
15507.692307692309,-118
15515.384615384615,-118
15523.076923076924,-108
15530.76923076923,-118
15538.461538461539,-177
15546.153846153846,-306
15553.846153846154,-354
15561.538461538463,-94
15569.23076923077,540
15576.923076923078,1550
15584.615384615385,2310
15592.307692307693,1701
15600.0,169
15607.692307692309,-514
15615.384615384615,-280
15623.076923076924,-264
15630.76923076923,-427
15638.461538461539,-361
15646.153846153846,-302
15653.846153846154,-332
15661.538461538463,-311
15669.23076923077,-278
15676.923076923078,-276
15684.615384615385,-261
15692.307692307693,-228
15700.0,-212
15707.692307692309,-210
15715.384615384615,-198
15723.076923076924,-177
15730.76923076923,-162
15738.461538461539,-151
15746.153846153846,-136
15753.846153846154,-118
15761.538461538463,-96
15769.23076923077,-73
15776.923076923078,-40
15784.615384615385,-11
15792.307692307693,18
15800.0,37
15807.692307692309,54
15815.384615384615,80
15823.076923076924,96
15830.76923076923,87
15838.461538461539,51
15846.153846153846,-7
15853.846153846154,-73
15861.538461538463,-122
15869.23076923077,-155
15876.923076923078,-186
15884.615384615385,-214
15892.307692307693,-231
15900.0,-231
15907.692307692309,-228
15915.384615384615,-221
15923.076923076924,-205
15930.76923076923,-198
15938.461538461539,-205
15946.153846153846,-198
15953.846153846154,-177
15961.538461538463,-169
15969.23076923077,-172
15976.923076923078,-167
15984.615384615385,-158
15992.307692307693,-153
16000.0,-148
16007.692307692309,-148
16015.384615384615,-148
16023.076923076924,-151
16030.76923076923,-153
16038.461538461539,-146
16046.153846153846,-141
16053.846153846154,-139
16061.538461538463,-141
16069.23076923077,-146
16076.923076923078,-148
16084.615384615385,-153
16092.307692307693,-148
16100.0,-141
16107.692307692309,-143
16115.384615384615,-143
16123.076923076924,-136
16130.76923076923,-139
16138.461538461539,-141
16146.153846153846,-127
16153.846153846154,-122
16161.538461538463,-127
16169.23076923077,-134
16176.923076923078,-136
16184.615384615385,-127
16192.307692307693,-118
16200.0,-122
16207.692307692309,-118
16215.384615384615,-115
16223.076923076924,-122
16230.76923076923,-120
16238.461538461539,-113
16246.153846153846,-115
16253.846153846154,-118
16261.538461538463,-115
16269.23076923077,-120
16276.923076923078,-129
16284.615384615385,-115
16292.307692307693,-89
16300.0,-68
16307.692307692309,-66
16315.384615384615,-80
16323.076923076924,-92
16330.76923076923,-92
16338.461538461539,-103
16346.153846153846,-122
16353.846153846154,-115
16361.538461538463,-106
16369.23076923077,-103
16376.923076923078,-101
16384.615384615387,-106
16392.30769230769,-113
16400.0,-110
16407.69230769231,-103
16415.384615384617,-99
16423.076923076922,-99
16430.76923076923,-101
16438.46153846154,-106
16446.153846153848,-141
16453.846153846156,-257
16461.53846153846,-344
16469.23076923077,-181
16476.923076923078,339
16484.615384615387,1272
16492.30769230769,2199
16500.0,1991
16507.69230769231,542
16515.384615384617,-469
16523.076923076922,-356
16530.76923076923,-205
16538.46153846154,-370
16546.153846153848,-368
16553.846153846156,-283
16561.53846153846,-316
16569.23076923077,-316
16576.923076923078,-261
16584.615384615387,-254
16592.30769230769,-257
16600.0,-228
16607.69230769231,-207
16615.384615384617,-198
16623.076923076922,-177
16630.76923076923,-160
16638.46153846154,-151
16646.153846153848,-136
16653.846153846156,-120
16661.53846153846,-101
16669.23076923077,-75
16676.923076923078,-54
16684.615384615387,-33
16692.30769230769,2
16700.0,35
16707.69230769231,63
16715.384615384617,94
16723.076923076922,118
16730.76923076923,125
16738.46153846154,125
16746.153846153848,101
16753.846153846156,44
16761.53846153846,-16
16769.23076923077,-73
16776.923076923078,-127
16784.615384615387,-165
16792.30769230769,-193
16800.0,-210
16807.69230769231,-212
16815.384615384617,-205
16823.076923076922,-207
16830.76923076923,-212
16838.46153846154,-198
16846.153846153848,-184
16853.846153846156,-177
16861.53846153846,-172
16869.23076923077,-162
16876.923076923078,-158
16884.615384615387,-162
16892.30769230769,-160
16900.0,-136
16907.69230769231,-132
16915.384615384617,-143
16923.076923076922,-136
16930.76923076923,-127
16938.46153846154,-132
16946.153846153848,-129
16953.846153846156,-127
16961.53846153846,-127
16969.23076923077,-129
16976.923076923078,-129
16984.615384615387,-129
16992.30769230769,-125
17000.0,-122
17007.69230769231,-127
17015.384615384617,-129
17023.076923076922,-127
17030.76923076923,-118
17038.46153846154,-106
17046.153846153848,-115
17053.846153846156,-134
17061.53846153846,-129
17069.23076923077,-113
17076.923076923078,-110
17084.615384615387,-113
17092.30769230769,-115
17100.0,-122
17107.69230769231,-120
17115.384615384617,-106
17123.076923076922,-110
17130.76923076923,-122
17138.46153846154,-115
17146.153846153848,-115
17153.846153846156,-125
17161.53846153846,-96
17169.23076923077,-63
17176.923076923078,-61
17184.615384615387,-68
17192.30769230769,-75
17200.0,-87
17207.69230769231,-101
17215.384615384617,-106
17223.076923076922,-99
17230.76923076923,-96
17238.46153846154,-103
17246.153846153848,-103
17253.846153846156,-103
17261.53846153846,-106
17269.23076923077,-106
17276.923076923078,-103
17284.615384615387,-101
17292.30769230769,-103
17300.0,-99
17307.69230769231,-99
17315.384615384617,-115
17323.076923076922,-184
17330.76923076923,-323
17338.46153846154,-349
17346.153846153848,-23
17353.846153846156,712
17361.53846153846,1767
17369.23076923077,2369
17376.923076923078,1512
17384.615384615387,-4
17392.30769230769,-500
17400.0,-231
17407.69230769231,-273
17415.384615384617,-422
17423.076923076922,-344
17430.76923076923,-297
17438.46153846154,-330
17446.153846153848,-302
17453.846153846156,-266
17461.53846153846,-269
17469.23076923077,-264
17476.923076923078,-236
17484.615384615387,-214
17492.30769230769,-200
17500.0,-184
17507.69230769231,-174
17515.384615384617,-165
17523.076923076922,-148
17530.76923076923,-132
17538.46153846154,-110
17546.153846153848,-84
17553.846153846156,-59
17561.53846153846,-30
17569.23076923077,-2
17576.923076923078,25
17584.615384615387,56
17592.30769230769,82
17600.0,99
17607.69230769231,106
17615.384615384617,92
17623.076923076922,51
17630.76923076923,-9
17638.46153846154,-70
17646.153846153848,-120
17653.846153846156,-162
17661.53846153846,-195
17669.23076923077,-217
17676.923076923078,-226
17684.615384615387,-226
17692.30769230769,-221
17700.0,-221
17707.69230769231,-217
17715.384615384617,-200
17723.076923076922,-188
17730.76923076923,-186
17738.46153846154,-179
17746.153846153848,-172
17753.846153846156,-162
17761.53846153846,-158
17769.23076923077,-151
17776.923076923078,-146
17784.615384615387,-148
17792.30769230769,-153
17800.0,-141
17807.69230769231,-132
17815.384615384617,-136
17823.076923076922,-143
17830.76923076923,-146
17838.46153846154,-143
17846.153846153848,-141
17853.846153846156,-141
17861.53846153846,-136
17869.23076923077,-139
17876.923076923078,-139
17884.615384615387,-134
17892.30769230769,-129
17900.0,-134
17907.69230769231,-136
17915.384615384617,-129
17923.076923076922,-129
17930.76923076923,-127
17938.46153846154,-122
17946.153846153848,-120
17953.846153846156,-118
17961.53846153846,-120
17969.23076923077,-122
17976.923076923078,-113
17984.615384615387,-110
17992.30769230769,-113
18000.0,-115
18007.69230769231,-120
18015.384615384617,-115
18023.076923076922,-110
18030.76923076923,-115
18038.46153846154,-122
18046.153846153848,-122
18053.846153846156,-115
18061.53846153846,-92
18069.23076923077,-63
18076.923076923078,-61
18084.615384615387,-70
18092.30769230769,-75
18100.0,-82
18107.69230769231,-106
18115.384615384617,-120
18123.076923076922,-110
18130.76923076923,-101
18138.46153846154,-103
18146.153846153848,-108
18153.846153846156,-106
18161.53846153846,-101
18169.23076923077,-106
18176.923076923078,-106
18184.615384615387,-103
18192.30769230769,-103
18200.0,-101
18207.69230769231,-101
18215.384615384617,-113
18223.076923076922,-158
18230.76923076923,-280
18238.46153846154,-339
18246.153846153848,-92
18253.846153846156,531
18261.53846153846,1522
18269.23076923077,2289
18276.923076923078,1741
18284.615384615387,243
18292.30769230769,-488
18300.0,-278
18307.69230769231,-240
18315.384615384617,-403
18323.076923076922,-358
18330.76923076923,-304
18338.46153846154,-337
18346.153846153848,-316
18353.846153846156,-273
18361.53846153846,-264
18369.23076923077,-254
18376.923076923078,-226
18384.615384615387,-217
18392.30769230769,-210
18400.0,-188
18407.69230769231,-172
18415.384615384617,-162
18423.076923076922,-155
18430.76923076923,-136
18438.46153846154,-115
18446.153846153848,-96
18453.846153846156,-75
18461.53846153846,-44
18469.23076923077,-14
18476.923076923078,21
18484.615384615387,47
18492.30769230769,59
18500.0,80
18507.69230769231,99
18515.384615384617,89
18523.076923076922,59
18530.76923076923,14
18538.46153846154,-42
18546.153846153848,-101
18553.846153846156,-151
18561.53846153846,-186
18569.23076923077,-207
18576.923076923078,-217
18584.615384615387,-219
18592.30769230769,-236
18600.0,-240
18607.69230769231,-212
18615.384615384617,-202
18623.076923076922,-205
18630.76923076923,-188
18638.46153846154,-179
18646.153846153848,-177
18653.846153846156,-158
18661.53846153846,-151
18669.23076923077,-155
18676.923076923078,-148
18684.615384615387,-143
18692.30769230769,-143
18700.0,-134
18707.69230769231,-129
18715.384615384617,-132
18723.076923076922,-136
18730.76923076923,-134
18738.46153846154,-127
18746.153846153848,-129
18753.846153846156,-136
18761.53846153846,-132
18769.23076923077,-132
18776.923076923078,-134
18784.615384615387,-127
18792.30769230769,-125
18800.0,-129
18807.69230769231,-127
18815.384615384617,-120
18823.076923076922,-120
18830.76923076923,-125
18838.46153846154,-118
18846.153846153848,-110
18853.846153846156,-113
18861.53846153846,-118
18869.23076923077,-113
18876.923076923078,-106
18884.615384615387,-110
18892.30769230769,-113
18900.0,-108
18907.69230769231,-106
18915.384615384617,-106
18923.076923076922,-103
18930.76923076923,-99
18938.46153846154,-96
18946.153846153848,-101
18953.846153846156,-103
18961.53846153846,-94
18969.23076923077,-106
18976.923076923078,-125
18984.615384615387,-110
18992.30769230769,-80
19000.0,-61
19007.69230769231,-51
19015.384615384617,-49
19023.076923076922,-56
19030.76923076923,-63
19038.46153846154,-77
19046.153846153848,-92
19053.846153846156,-82
19061.53846153846,-77
19069.23076923077,-96
19076.923076923078,-96
19084.615384615387,-84
19092.30769230769,-94
19100.0,-99
19107.69230769231,-92
19115.384615384617,-94
19123.076923076922,-101
19130.76923076923,-101
19138.46153846154,-96
19146.153846153848,-96
19153.846153846156,-113
19161.53846153846,-184
19169.23076923077,-302
19176.923076923078,-273
19184.615384615387,94
19192.30769230769,854
19200.0,1878
19207.69230769231,2277
19215.384615384617,1231
19223.076923076922,-174
19230.76923076923,-467
19238.46153846154,-195
19246.153846153848,-280
19253.846153846156,-391
19261.53846153846,-306
19269.23076923077,-283
19276.923076923078,-302
19284.615384615387,-266
19292.30769230769,-238
19300.0,-236
19307.69230769231,-217
19315.384615384617,-188
19323.076923076922,-181
19330.76923076923,-174
19338.46153846154,-155
19346.153846153848,-141
19353.846153846156,-129
19361.53846153846,-110
19369.23076923077,-99
19376.923076923078,-82
19384.615384615387,-51
19392.30769230769,-28
19400.0,-7
19407.69230769231,25
19415.384615384617,61
19423.076923076922,87
19430.76923076923,110
19438.46153846154,129
19446.153846153848,136
19453.846153846156,125
19461.53846153846,87
19469.23076923077,25
19476.923076923078,-35
19484.615384615387,-84
19492.30769230769,-132
19500.0,-169
19507.69230769231,-195
19515.384615384617,-198
19523.076923076922,-195
19530.76923076923,-198
19538.46153846154,-195
19546.153846153848,-193
19553.846153846156,-188
19561.53846153846,-174
19569.23076923077,-153
19576.923076923078,-148
19584.615384615387,-158
19592.30769230769,-148
19600.0,-134
19607.69230769231,-132
19615.384615384617,-129
19623.076923076922,-132
19630.76923076923,-139
19638.46153846154,-129
19646.153846153848,-118
19653.846153846156,-120
19661.53846153846,-125
19669.23076923077,-125
19676.923076923078,-125
19684.615384615387,-120
19692.30769230769,-122
19700.0,-127
19707.69230769231,-120
19715.384615384617,-120
19723.076923076922,-132
19730.76923076923,-129
19738.46153846154,-120
19746.153846153848,-113
19753.846153846156,-113
19761.53846153846,-113
19769.23076923077,-113
19776.923076923078,-108
19784.615384615387,-101
19792.30769230769,-101
19800.0,-106
19807.69230769231,-103
19815.384615384617,-94
19823.076923076922,-99
19830.76923076923,-103
19838.46153846154,-94
19846.153846153848,-89
19853.846153846156,-101
19861.53846153846,-108
19869.23076923077,-108
19876.923076923078,-106
19884.615384615387,-87
19892.30769230769,-61
19900.0,-44
19907.69230769231,-47
19915.384615384617,-63
19923.076923076922,-75
19930.76923076923,-82
19938.46153846154,-92
19946.153846153848,-94
19953.846153846156,-94
19961.53846153846,-96
19969.23076923077,-94
19976.923076923078,-96
19984.615384615387,-99
19992.30769230769,-99
20000.0,-101
20007.69230769231,-101
20015.384615384617,-92
20023.076923076922,-89
20030.76923076923,-106
20038.46153846154,-110
20046.153846153848,-120
20053.846153846156,-221
20061.53846153846,-356
20069.23076923077,-269
20076.923076923078,186
20084.615384615387,1045
20092.30769230769,2069
20100.0,2227
20107.69230769231,941
20115.384615384617,-339
20123.076923076922,-415
20130.76923076923,-188
20138.46153846154,-349
20146.153846153848,-405
20153.846153846156,-302
20161.53846153846,-316
20169.23076923077,-332
20176.923076923078,-271
20184.615384615387,-247
20192.30769230769,-250
20200.0,-226
20207.69230769231,-207
20215.384615384617,-200
20223.076923076922,-184
20230.76923076923,-167
20238.46153846154,-153
20246.153846153848,-141
20253.846153846156,-129
20261.53846153846,-120
20269.23076923077,-99
20276.923076923078,-66
20284.615384615387,-37
20292.30769230769,-14
20300.0,16
20307.69230769231,49
20315.384615384617,75
20323.076923076922,96
20330.76923076923,113
20338.46153846154,120
20346.153846153848,101
20353.846153846156,51
20361.53846153846,-7
20369.23076923077,-66
20376.923076923078,-115
20384.615384615387,-155
20392.30769230769,-191
20400.0,-207
20407.69230769231,-205
20415.384615384617,-202
20423.076923076922,-212
20430.76923076923,-212
20438.46153846154,-195
20446.153846153848,-179
20453.846153846156,-169
20461.53846153846,-165
20469.23076923077,-162
20476.923076923078,-153
20484.615384615387,-148
20492.30769230769,-148
20500.0,-141
20507.69230769231,-134
20515.384615384617,-134
20523.076923076922,-132
20530.76923076923,-129
20538.46153846154,-122
20546.153846153848,-122
20553.846153846156,-132
20561.53846153846,-134
20569.23076923077,-129
20576.923076923078,-127
20584.615384615387,-127
20592.30769230769,-125
20600.0,-125
20607.69230769231,-132
20615.384615384617,-129
20623.076923076922,-125
20630.76923076923,-125
20638.46153846154,-127
20646.153846153848,-129
20653.846153846156,-125
20661.53846153846,-125
20669.23076923077,-120
20676.923076923078,-113
20684.615384615387,-113
20692.30769230769,-113
20700.0,-113
20707.69230769231,-113
20715.384615384617,-110
20723.076923076922,-106
20730.76923076923,-103
20738.46153846154,-106
20746.153846153848,-106
20753.846153846156,-106
20761.53846153846,-101
20769.23076923077,-99
20776.923076923078,-96
20784.615384615387,-96
20792.30769230769,-103
20800.0,-108
20807.69230769231,-108
20815.384615384617,-108
20823.076923076922,-99
20830.76923076923,-82
20838.46153846154,-66
20846.153846153848,-56
20853.846153846156,-59
20861.53846153846,-70
20869.23076923077,-80
20876.923076923078,-82
20884.615384615387,-94
20892.30769230769,-94
20900.0,-82
20907.69230769231,-89
20915.384615384617,-92
20923.076923076922,-84
20930.76923076923,-89
20938.46153846154,-99
20946.153846153848,-89
20953.846153846156,-89
20961.53846153846,-92
20969.23076923077,-87
20976.923076923078,-87
20984.615384615387,-92
20992.30769230769,-136
21000.0,-259
21007.69230769231,-328
21015.384615384617,-110
21023.076923076922,467
21030.76923076923,1444
21038.46153846154,2301
21046.153846153848,1890
21053.846153846156,391
21061.53846153846,-464
21069.23076923077,-299
21076.923076923078,-221
21084.615384615387,-382
21092.30769230769,-354
21100.0,-285
21107.69230769231,-313
21115.384615384617,-304
21123.076923076922,-257
21130.76923076923,-240
21138.46153846154,-238
21146.153846153848,-226
21153.846153846156,-210
21161.53846153846,-193
21169.23076923077,-177
21176.923076923078,-158
21184.615384615387,-143
21192.30769230769,-134
21200.0,-120
21207.69230769231,-96
21215.384615384617,-73
21223.076923076922,-51
21230.76923076923,-33
21238.46153846154,-7
21246.153846153848,28
21253.846153846156,63
21261.53846153846,89
21269.23076923077,113
21276.923076923078,125
21284.615384615387,113
21292.30769230769,89
21300.0,47
21307.69230769231,-11
21315.384615384617,-68
21323.076923076922,-113
21330.76923076923,-151
21338.46153846154,-184
21346.153846153848,-202
21353.846153846156,-205
21361.53846153846,-198
21369.23076923077,-193
21376.923076923078,-191
21384.615384615387,-181
21392.30769230769,-174
21400.0,-165
21407.69230769231,-153
21415.384615384617,-151
21423.076923076922,-148
21430.76923076923,-151
21438.46153846154,-146
21446.153846153848,-134
21453.846153846156,-129
21461.53846153846,-127
21469.23076923077,-120
21476.923076923078,-118
21484.615384615387,-118
21492.30769230769,-115
21500.0,-115
21507.69230769231,-115
21515.384615384617,-122
21523.076923076922,-122
21530.76923076923,-115
21538.46153846154,-115
21546.153846153848,-115
21553.846153846156,-110
21561.53846153846,-108
21569.23076923077,-113
21576.923076923078,-115
21584.615384615387,-110
21592.30769230769,-99
21600.0,-101
21607.69230769231,-103
21615.384615384617,-106
21623.076923076922,-106
21630.76923076923,-101
21638.46153846154,-92
21646.153846153848,-101
21653.846153846156,-120
21661.53846153846,-103
21669.23076923077,-84
21676.923076923078,-92
21684.615384615387,-87
21692.30769230769,-80
21700.0,-89
21707.69230769231,-92
21715.384615384617,-80
21723.076923076922,-75
21730.76923076923,-80
21738.46153846154,-82
21746.153846153848,-82
21753.846153846156,-82
21761.53846153846,-89
21769.23076923077,-99
21776.923076923078,-87
21784.615384615387,-66
21792.30769230769,-61
21800.0,-56
21807.69230769231,-35
21815.384615384617,-37
21823.076923076922,-61
21830.76923076923,-73
21838.46153846154,-73
21846.153846153848,-66
21853.846153846156,-61
21861.53846153846,-70
21869.23076923077,-75
21876.923076923078,-70
21884.615384615387,-70
21892.30769230769,-73
21900.0,-75
21907.69230769231,-75
21915.384615384617,-68
21923.076923076922,-70
21930.76923076923,-80
21938.46153846154,-75
21946.153846153848,-96
21953.846153846156,-200
21961.53846153846,-332
21969.23076923077,-243
21976.923076923078,247
21984.615384615387,1163
21992.30769230769,2178
22000.0,2230
22007.69230769231,877
22015.384615384617,-358
22023.076923076922,-389
22030.76923076923,-162
22038.46153846154,-313
22046.153846153848,-368
22053.846153846156,-276
22061.53846153846,-283
22069.23076923077,-297
22076.923076923078,-250
22084.615384615387,-233
22092.30769230769,-231
22100.0,-207
22107.69230769231,-186
22115.384615384617,-177
22123.076923076922,-162
22130.76923076923,-146
22138.46153846154,-141
22146.153846153848,-136
22153.846153846156,-120
22161.53846153846,-99
22169.23076923077,-80
22176.923076923078,-59
22184.615384615387,-35
22192.30769230769,-7
22200.0,25
22207.69230769231,59
22215.384615384617,82
22223.076923076922,103
22230.76923076923,120
22238.46153846154,129
22246.153846153848,115
22253.846153846156,75
22261.53846153846,21
22269.23076923077,-37
22276.923076923078,-94
22284.615384615387,-148
22292.30769230769,-181
22300.0,-193
22307.69230769231,-202
22315.384615384617,-207
22323.076923076922,-205
22330.76923076923,-198
22338.46153846154,-191
22346.153846153848,-179
22353.846153846156,-169
22361.53846153846,-160
22369.23076923077,-158
22376.923076923078,-162
22384.615384615387,-158
22392.30769230769,-141
22400.0,-139
22407.69230769231,-139
22415.384615384617,-134
22423.076923076922,-129
22430.76923076923,-122
22438.46153846154,-125
22446.153846153848,-136
22453.846153846156,-136
22461.53846153846,-127
22469.23076923077,-129
22476.923076923078,-134
22484.615384615387,-129
22492.30769230769,-122
22500.0,-129
22507.69230769231,-141
22515.384615384617,-134
22523.076923076922,-127
22530.76923076923,-129
22538.46153846154,-127
22546.153846153848,-120
22553.846153846156,-120
22561.53846153846,-118
22569.23076923077,-110
22576.923076923078,-113
22584.615384615387,-118
22592.30769230769,-110
22600.0,-106
22607.69230769231,-108
22615.384615384617,-106
22623.076923076922,-99
22630.76923076923,-96
22638.46153846154,-99
22646.153846153848,-101
22653.846153846156,-106
22661.53846153846,-106
22669.23076923077,-101
22676.923076923078,-106
22684.615384615387,-118
22692.30769230769,-108
22700.0,-84
22707.69230769231,-63
22715.384615384617,-56
22723.076923076922,-47
22730.76923076923,-54
22738.46153846154,-75
22746.153846153848,-82
22753.846153846156,-82
22761.53846153846,-84
22769.23076923077,-82
22776.923076923078,-82
22784.615384615387,-84
22792.30769230769,-82
22800.0,-80
22807.69230769231,-82
22815.384615384617,-87
22823.076923076922,-87
22830.76923076923,-87
22838.46153846154,-89
22846.153846153848,-87
22853.846153846156,-84
22861.53846153846,-118
22869.23076923077,-231
22876.923076923078,-328
22884.615384615387,-181
22892.30769230769,316
22900.0,1222
22907.69230769231,2213
22915.384615384617,2147
22923.076923076922,726
22930.76923076923,-401
22938.46153846154,-354
22946.153846153848,-181
22953.846153846156,-354
22961.53846153846,-375
22969.23076923077,-280
22976.923076923078,-304
22984.615384615387,-311
22992.30769230769,-257
23000.0,-245
23007.69230769231,-245
23015.384615384617,-212
23023.076923076922,-195
23030.76923076923,-195
23038.46153846154,-174
23046.153846153848,-155
23053.846153846156,-148
23061.53846153846,-136
23069.23076923077,-120
23076.923076923078,-103
23084.615384615387,-82
23092.30769230769,-66
23100.0,-44
23107.69230769231,-9
23115.384615384617,25
23123.076923076922,54
23130.76923076923,77
23138.46153846154,101
23146.153846153848,120
23153.846153846156,122
23161.53846153846,99
23169.23076923077,51
23176.923076923078,0
23184.615384615387,-61
23192.30769230769,-120
23200.0,-158
23207.69230769231,-177
23215.384615384617,-193
23223.076923076922,-202
23230.76923076923,-207
23238.46153846154,-207
23246.153846153848,-193
23253.846153846156,-181
23261.53846153846,-177
23269.23076923077,-172
23276.923076923078,-165
23284.615384615387,-153
23292.30769230769,-143
23300.0,-141
23307.69230769231,-136
23315.384615384617,-132
23323.076923076922,-139
23330.76923076923,-132
23338.46153846154,-120
23346.153846153848,-120
23353.846153846156,-120
23361.53846153846,-115
23369.23076923077,-115
23376.923076923078,-113
23384.615384615387,-108
23392.30769230769,-106
23400.0,-113
23407.69230769231,-118
23415.384615384617,-115
23423.076923076922,-110
23430.76923076923,-113
23438.46153846154,-113
23446.153846153848,-113
23453.846153846156,-110
23461.53846153846,-110
23469.23076923077,-108
23476.923076923078,-101
23484.615384615387,-96
23492.30769230769,-103
23500.0,-110
23507.69230769231,-103
23515.384615384617,-96
23523.076923076922,-99
23530.76923076923,-101
23538.46153846154,-94
23546.153846153848,-92
23553.846153846156,-92
23561.53846153846,-87
23569.23076923077,-87
23576.923076923078,-89
23584.615384615387,-87
23592.30769230769,-87
23600.0,-94
23607.69230769231,-87
23615.384615384617,-82
23623.076923076922,-92
23630.76923076923,-106
23638.46153846154,-113
23646.153846153848,-96
23653.846153846156,-68
23661.53846153846,-54
23669.23076923077,-54
23676.923076923078,-49
23684.615384615387,-51
23692.30769230769,-63
23700.0,-80
23707.69230769231,-84
23715.384615384617,-73
23723.076923076922,-68
23730.76923076923,-70
23738.46153846154,-70
23746.153846153848,-73
23753.846153846156,-75
23761.53846153846,-75
23769.23076923077,-73
23776.923076923078,-68
23784.615384615387,-63
23792.30769230769,-73
23800.0,-75
23807.69230769231,-77
23815.384615384617,-139
23823.076923076922,-271
23830.76923076923,-297
23838.46153846154,-7
23846.153846153848,672
23853.846153846156,1711
23861.53846153846,2385
23869.23076923077,1642
23876.923076923078,118
23884.615384615387,-481
23892.30769230769,-224
23900.0,-221
23907.69230769231,-382
23915.384615384617,-318
23923.076923076922,-259
23930.76923076923,-292
23938.46153846154,-271
23946.153846153848,-231
23953.846153846156,-226
23961.53846153846,-214
23969.23076923077,-188
23976.923076923078,-177
23984.615384615387,-167
23992.30769230769,-151
24000.0,-134
24007.69230769231,-120
24015.384615384617,-108
24023.076923076922,-96
24030.76923076923,-82
24038.46153846154,-59
24046.153846153848,-28
24053.846153846156,9
24061.53846153846,37
24069.23076923077,56
24076.923076923078,89
24084.615384615387,122
24092.30769230769,139
24100.0,153
24107.69230769231,155
24115.384615384617,129
24123.076923076922,70
24130.76923076923,0
24138.46153846154,-56
24146.153846153848,-103
24153.846153846156,-148
24161.53846153846,-181
24169.23076923077,-198
24176.923076923078,-200
24184.615384615387,-193
24192.30769230769,-188
24200.0,-188
24207.69230769231,-179
24215.384615384617,-167
24223.076923076922,-169
24230.76923076923,-162
24238.46153846154,-143
24246.153846153848,-129
24253.846153846156,-127
24261.53846153846,-132
24269.23076923077,-122
24276.923076923078,-113
24284.615384615387,-115
24292.30769230769,-113
24300.0,-108
24307.69230769231,-110
24315.384615384617,-106
24323.076923076922,-96
24330.76923076923,-99
24338.46153846154,-108
24346.153846153848,-106
24353.846153846156,-103
24361.53846153846,-101
24369.23076923077,-99
24376.923076923078,-99
24384.615384615387,-101
24392.30769230769,-101
24400.0,-101
24407.69230769231,-99
24415.384615384617,-92
24423.076923076922,-89
24430.76923076923,-92
24438.46153846154,-92
24446.153846153848,-87
24453.846153846156,-87
24461.53846153846,-94
24469.23076923077,-87
24476.923076923078,-80
24484.615384615387,-80
24492.30769230769,-80
24500.0,-82
24507.69230769231,-80
24515.384615384617,-77
24523.076923076922,-84
24530.76923076923,-92
24538.46153846154,-94
24546.153846153848,-96
24553.846153846156,-80
24561.53846153846,-54
24569.23076923077,-49
24576.923076923078,-51
24584.615384615387,-44
24592.30769230769,-54
24600.0,-73
24607.69230769231,-77
24615.384615384617,-75
24623.076923076922,-77
24630.76923076923,-84
24638.46153846154,-80
24646.153846153848,-75
24653.846153846156,-82
24661.53846153846,-89
24669.23076923077,-92
24676.923076923078,-92
24684.615384615387,-92
24692.30769230769,-92
24700.0,-87
24707.69230769231,-84
24715.384615384617,-110
24723.076923076922,-207
24730.76923076923,-335
24738.46153846154,-278
24746.153846153848,155
24753.846153846156,1028
24761.53846153846,2102
24769.23076923077,2319
24776.923076923078,1066
24784.615384615387,-261
24792.30769230769,-413
24800.0,-186
24807.69230769231,-325
24815.384615384617,-398
24823.076923076922,-297
24830.76923076923,-292
24838.46153846154,-313
24846.153846153848,-271
24853.846153846156,-245
24861.53846153846,-240
24869.23076923077,-226
24876.923076923078,-207
24884.615384615387,-188
24892.30769230769,-179
24900.0,-174
24907.69230769231,-155
24915.384615384617,-134
24923.076923076922,-122
24930.76923076923,-108
24938.46153846154,-92
24946.153846153848,-68
24953.846153846156,-37
24961.53846153846,-7
24969.23076923077,18
24976.923076923078,47
24984.615384615387,73
24992.30769230769,92
25000.0,113
25007.69230769231,129
25015.384615384617,115
25023.076923076922,70
25030.76923076923,9
25038.46153846154,-54
25046.153846153848,-101
25053.846153846156,-143
25061.53846153846,-179
25069.23076923077,-195
25076.923076923078,-210
25084.615384615387,-219
25092.30769230769,-210
25100.0,-195
25107.69230769231,-193
25115.384615384617,-188
25123.076923076922,-179
25130.76923076923,-167
25138.46153846154,-160
25146.153846153848,-153
25153.846153846156,-146
25161.53846153846,-146
25169.23076923077,-143
25176.923076923078,-139
25184.615384615387,-143
25192.30769230769,-141
25200.0,-129
25207.69230769231,-125
25215.384615384617,-127
25223.076923076922,-127
25230.76923076923,-125
25238.46153846154,-120
25246.153846153848,-120
25253.846153846156,-125
25261.53846153846,-127
25269.23076923077,-127
25276.923076923078,-125
25284.615384615387,-120
25292.30769230769,-118
25300.0,-120
25307.69230769231,-120
25315.384615384617,-115
25323.076923076922,-118
25330.76923076923,-118
25338.46153846154,-113
25346.153846153848,-118
25353.846153846156,-125
25361.53846153846,-118
25369.23076923077,-108
25376.923076923078,-103
25384.615384615387,-103
25392.30769230769,-103
25400.0,-106
25407.69230769231,-101
25415.384615384617,-96
25423.076923076922,-96
25430.76923076923,-96
25438.46153846154,-94
25446.153846153848,-92
25453.846153846156,-101
25461.53846153846,-103
25469.23076923077,-101
25476.923076923078,-101
25484.615384615387,-84
25492.30769230769,-61
25500.0,-54
25507.69230769231,-49
25515.384615384617,-47
25523.076923076922,-59
25530.76923076923,-73
25538.46153846154,-84
25546.153846153848,-87
25553.846153846156,-77
25561.53846153846,-70
25569.23076923077,-80
25576.923076923078,-87
25584.615384615387,-82
25592.30769230769,-82
25600.0,-84
25607.69230769231,-82
25615.384615384617,-80
25623.076923076922,-82
25630.76923076923,-80
25638.46153846154,-77
25646.153846153848,-101
25653.846153846156,-193
25661.53846153846,-313
25669.23076923077,-245
25676.923076923078,167
25684.615384615387,991
25692.30769230769,2034
25700.0,2301
25707.69230769231,1113
25715.384615384617,-231
25723.076923076922,-422
25730.76923076923,-191
25738.46153846154,-309
25746.153846153848,-382
25753.846153846156,-292
25761.53846153846,-285
25769.23076923077,-302
25776.923076923078,-259
25784.615384615387,-236
25792.30769230769,-238
25800.0,-226
25807.69230769231,-200
25815.384615384617,-181
25823.076923076922,-179
25830.76923076923,-165
25838.46153846154,-139
25846.153846153848,-122
25853.846153846156,-118
25861.53846153846,-108
25869.23076923077,-84
25876.923076923078,-59
25884.615384615387,-51
25892.30769230769,-30
25900.0,21
25907.69230769231,59
25915.384615384617,75
25923.076923076922,96
25930.76923076923,115
25938.46153846154,122
25946.153846153848,113
25953.846153846156,73
25961.53846153846,16
25969.23076923077,-42
25976.923076923078,-101
25984.615384615387,-146
25992.30769230769,-174
26000.0,-198
26007.69230769231,-210
26015.384615384617,-210
26023.076923076922,-212
26030.76923076923,-202
26038.46153846154,-191
26046.153846153848,-191
26053.846153846156,-188
26061.53846153846,-174
26069.23076923077,-162
26076.923076923078,-155
26084.615384615387,-148
26092.30769230769,-148
26100.0,-148
26107.69230769231,-143
26115.384615384617,-139
26123.076923076922,-132
26130.76923076923,-127
26138.46153846154,-127
26146.153846153848,-125
26153.846153846156,-122
26161.53846153846,-125
26169.23076923077,-125
26176.923076923078,-120
26184.615384615387,-122
26192.30769230769,-129
26200.0,-132
26207.69230769231,-129
26215.384615384617,-127
26223.076923076922,-120
26230.76923076923,-113
26238.46153846154,-118
26246.153846153848,-120
26253.846153846156,-118
26261.53846153846,-110
26269.23076923077,-106
26276.923076923078,-106
26284.615384615387,-115
26292.30769230769,-113
26300.0,-99
26307.69230769231,-103
26315.384615384617,-110
26323.076923076926,-101
26330.76923076923,-96
26338.46153846154,-99
26346.153846153848,-96
26353.846153846156,-94
26361.53846153846,-89
26369.23076923077,-89
26376.923076923078,-94
26384.615384615387,-99
26392.30769230769,-96
26400.0,-87
26407.69230769231,-92
26415.384615384617,-103
26423.076923076926,-106
26430.76923076923,-84
26438.46153846154,-56
26446.153846153848,-47
26453.846153846156,-44
26461.53846153846,-47
26469.23076923077,-59
26476.923076923078,-68
26484.615384615387,-80
26492.30769230769,-87
26500.0,-73
26507.69230769231,-70
26515.384615384617,-84
26523.076923076926,-84
26530.76923076923,-77
26538.46153846154,-80
26546.153846153848,-82
26553.846153846156,-77
26561.53846153846,-77
26569.23076923077,-77
26576.923076923078,-75
26584.615384615387,-80
26592.30769230769,-87
26600.0,-146
26607.69230769231,-273
26615.384615384617,-280
26623.076923076926,23
26630.76923076923,691
26638.46153846154,1689
26646.153846153848,2277
26653.846153846156,1470
26661.53846153846,23
26669.23076923077,-450
26676.923076923078,-207
26684.615384615387,-252
26692.30769230769,-391
26700.0,-316
26707.69230769231,-271
26715.384615384617,-297
26723.076923076926,-266
26730.76923076923,-228
26738.46153846154,-231
26746.153846153848,-221
26753.846153846156,-195
26761.53846153846,-177
26769.23076923077,-165
26776.923076923078,-151
26784.615384615387,-136
26792.30769230769,-122
26800.0,-110
26807.69230769231,-96
26815.384615384617,-75
26823.076923076926,-56
26830.76923076923,-37
26838.46153846154,-7
26846.153846153848,23
26853.846153846156,51
26861.53846153846,80
26869.23076923077,108
26876.923076923078,132
26884.615384615387,136
26892.30769230769,127
26900.0,101
26907.69230769231,51
26915.384615384617,-14
26923.076923076926,-68
26930.76923076923,-110
26938.46153846154,-148
26946.153846153848,-177
26953.846153846156,-193
26961.53846153846,-193
26969.23076923077,-188
26976.923076923078,-188
26984.615384615387,-186
26992.30769230769,-177
27000.0,-167
27007.69230769231,-167
27015.384615384617,-169
27023.076923076926,-158
27030.76923076923,-134
27038.46153846154,-132
27046.153846153848,-136
27053.846153846156,-122
27061.53846153846,-115
27069.23076923077,-122
27076.923076923078,-113
27084.615384615387,-103
27092.30769230769,-113
27100.0,-113
27107.69230769231,-103
27115.384615384617,-106
27123.076923076926,-110
27130.76923076923,-103
27138.46153846154,-101
27146.153846153848,-103
27153.846153846156,-101
27161.53846153846,-101
27169.23076923077,-99
27176.923076923078,-92
27184.615384615387,-94
27192.30769230769,-103
27200.0,-106
27207.69230769231,-101
27215.384615384617,-92
27223.076923076926,-87
27230.76923076923,-87
27238.46153846154,-89
27246.153846153848,-89
27253.846153846156,-92
27261.53846153846,-89
27269.23076923077,-80
27276.923076923078,-70
27284.615384615387,-77
27292.30769230769,-87
27300.0,-77
27307.69230769231,-61
27315.384615384617,-59
27323.076923076926,-66
27330.76923076923,-70
27338.46153846154,-68
27346.153846153848,-66
27353.846153846156,-73
27361.53846153846,-82
27369.23076923077,-75
27376.923076923078,-47
27384.615384615387,-23
27392.30769230769,-18
27400.0,-28
27407.69230769231,-30
27415.384615384617,-35
27423.076923076926,-56
27430.76923076923,-68
27438.46153846154,-54
27446.153846153848,-47
27453.846153846156,-56
27461.53846153846,-56
27469.23076923077,-56
27476.923076923078,-63
27484.615384615387,-70
27492.30769230769,-70
27500.0,-63
27507.69230769231,-59
27515.384615384617,-59
27523.076923076926,-54
27530.76923076923,-54
27538.46153846154,-77
27546.153846153848,-174
27553.846153846156,-302
27561.53846153846,-226
27569.23076923077,224
27576.923076923078,1076
27584.615384615387,2105
27592.30769230769,2315
27600.0,1043
27607.69230769231,-316
27615.384615384617,-417
27623.076923076926,-134
27630.76923076923,-283
27638.46153846154,-370
27646.153846153848,-257
27653.846153846156,-250
27661.53846153846,-278
27669.23076923077,-236
27676.923076923078,-207
27684.615384615387,-200
27692.30769230769,-181
27700.0,-172
27707.69230769231,-165
27715.384615384617,-146
27723.076923076926,-127
27730.76923076923,-113
27738.46153846154,-96
27746.153846153848,-82
27753.846153846156,-66
27761.53846153846,-47
27769.23076923077,-25
27776.923076923078,7
27784.615384615387,40
27792.30769230769,63
27800.0,94
27807.69230769231,129
27815.384615384617,155
27823.076923076926,172
27830.76923076923,184
27838.46153846154,172
27846.153846153848,132
27853.846153846156,61
27861.53846153846,-14
27869.23076923077,-61
27876.923076923078,-108
27884.615384615387,-158
27892.30769230769,-177
27900.0,-179
27907.69230769231,-188
27915.384615384617,-193
27923.076923076926,-184
27930.76923076923,-169
27938.46153846154,-162
27946.153846153848,-162
27953.846153846156,-155
27961.53846153846,-148
27969.23076923077,-141
27976.923076923078,-129
27984.615384615387,-125
27992.30769230769,-125
28000.0,-125
28007.69230769231,-122
28015.384615384617,-115
28023.076923076926,-110
28030.76923076923,-108
28038.46153846154,-110
28046.153846153848,-113
28053.846153846156,-113
28061.53846153846,-113
28069.23076923077,-110
28076.923076923078,-113
28084.615384615387,-113
28092.30769230769,-113
28100.0,-110
28107.69230769231,-108
28115.384615384617,-106
28123.076923076926,-106
28130.76923076923,-115
28138.46153846154,-125
28146.153846153848,-115
28153.846153846156,-103
28161.53846153846,-108
28169.23076923077,-110
28176.923076923078,-103
28184.615384615387,-101
28192.30769230769,-96
28200.0,-92
28207.69230769231,-99
28215.384615384617,-115
28223.076923076926,-125
28230.76923076923,-110
28238.46153846154,-82
28246.153846153848,-56
28253.846153846156,-42
28261.53846153846,-51
28269.23076923077,-63
28276.923076923078,-63
28284.615384615387,-70
28292.30769230769,-87
28300.0,-84
28307.69230769231,-77
28315.384615384617,-82
28323.076923076926,-84
28330.76923076923,-77
28338.46153846154,-82
28346.153846153848,-89
28353.846153846156,-87
28361.53846153846,-84
28369.23076923077,-82
28376.923076923078,-80
28384.615384615387,-80
28392.30769230769,-87
28400.0,-103
28407.69230769231,-186
28415.384615384617,-316
28423.076923076926,-264
28430.76923076923,136
28438.46153846154,927
28446.153846153848,1970
28453.846153846156,2298
28461.53846153846,1146
28469.23076923077,-228
28476.923076923078,-434
28484.615384615387,-177
28492.30769230769,-295
28500.0,-387
28507.69230769231,-287
28515.384615384617,-283
28523.076923076926,-316
28530.76923076923,-266
28538.46153846154,-238
28546.153846153848,-245
28553.846153846156,-219
28561.53846153846,-193
28569.23076923077,-188
28576.923076923078,-174
28584.615384615387,-158
28592.30769230769,-146
28600.0,-132
28607.69230769231,-115
28615.384615384617,-96
28623.076923076926,-77
28630.76923076923,-61
28638.46153846154,-37
28646.153846153848,0
28653.846153846156,35
28661.53846153846,61
28669.23076923077,87
28676.923076923078,113
28684.615384615387,129
28692.30769230769,132
28700.0,118
28707.69230769231,75
28715.384615384617,7
28723.076923076926,-68
28730.76923076923,-120
28738.46153846154,-153
28746.153846153848,-181
28753.846153846156,-202
28761.53846153846,-205
28769.23076923077,-210
28776.923076923078,-212
28784.615384615387,-200
28792.30769230769,-181
28800.0,-172
28807.69230769231,-179
28815.384615384617,-184
28823.076923076926,-165
28830.76923076923,-146
28838.46153846154,-146
28846.153846153848,-141
28853.846153846156,-132
28861.53846153846,-134
28869.23076923077,-132
28876.923076923078,-120
28884.615384615387,-113
28892.30769230769,-118
28900.0,-125
28907.69230769231,-120
28915.384615384617,-110
28923.076923076926,-110
28930.76923076923,-113
28938.46153846154,-108
28946.153846153848,-108
28953.846153846156,-113
28961.53846153846,-108
28969.23076923077,-101
28976.923076923078,-110
28984.615384615387,-115
28992.30769230769,-106
29000.0,-106
29007.69230769231,-110
29015.384615384617,-103
29023.076923076926,-99
29030.76923076923,-101
29038.46153846154,-96
29046.153846153848,-101
29053.846153846156,-103
29061.53846153846,-96
29069.23076923077,-89
29076.923076923078,-92
29084.615384615387,-96
29092.30769230769,-94
29100.0,-87
29107.69230769231,-89
29115.384615384617,-89
29123.076923076926,-87
29130.76923076923,-94
29138.46153846154,-99
29146.153846153848,-96
29153.846153846156,-89
29161.53846153846,-68
29169.23076923077,-49
29176.923076923078,-44
29184.615384615387,-49
29192.30769230769,-51
29200.0,-54
29207.69230769231,-63
29215.384615384617,-73
29223.076923076926,-82
29230.76923076923,-87
29238.46153846154,-82
29246.153846153848,-68
29253.846153846156,-70
29261.53846153846,-89
29269.23076923077,-94
29276.923076923078,-82
29284.615384615387,-75
29292.30769230769,-80
29300.0,-82
29307.69230769231,-66
29315.384615384617,-61
29323.076923076926,-92
29330.76923076923,-181
29338.46153846154,-297
29346.153846153848,-247
29353.846153846156,132
29361.53846153846,903
29369.23076923077,1951
29376.923076923078,2341
29384.615384615387,1257
29392.30769230769,-155
29400.0,-443
29407.69230769231,-184
29415.384615384617,-271
29423.076923076926,-372
29430.76923076923,-283
29438.46153846154,-266
29446.153846153848,-292
29453.846153846156,-257
29461.53846153846,-226
29469.23076923077,-219
29476.923076923078,-200
29484.615384615387,-184
29492.30769230769,-172
29500.0,-155
29507.69230769231,-139
29515.384615384617,-125
29523.076923076926,-110
29530.76923076923,-92
29538.46153846154,-82
29546.153846153848,-68
29553.846153846156,-33
29561.53846153846,0
29569.23076923077,23
29576.923076923078,44
29584.615384615387,75
29592.30769230769,115
29600.0,146
29607.69230769231,169
29615.384615384617,181
29623.076923076926,165
29630.76923076923,122
29638.46153846154,68
29646.153846153848,2
29653.846153846156,-61
29661.53846153846,-113
29669.23076923077,-148
29676.923076923078,-174
29684.615384615387,-186
29692.30769230769,-188
29700.0,-188
29707.69230769231,-184
29715.384615384617,-172
29723.076923076926,-169
29730.76923076923,-174
29738.46153846154,-162
29746.153846153848,-146
29753.846153846156,-141
29761.53846153846,-139
29769.23076923077,-125
29776.923076923078,-118
29784.615384615387,-122
29792.30769230769,-122
29800.0,-122
29807.69230769231,-125
29815.384615384617,-118
29823.076923076926,-106
29830.76923076923,-103
29838.46153846154,-110
29846.153846153848,-113
29853.846153846156,-108
29861.53846153846,-103
29869.23076923077,-106
29876.923076923078,-108
29884.615384615387,-106
29892.30769230769,-103
29900.0,-103
29907.69230769231,-101
29915.384615384617,-103
29923.076923076926,-108
29930.76923076923,-108
29938.46153846154,-99
29946.153846153848,-99
29953.846153846156,-101
29961.53846153846,-96
29969.23076923077,-92
29976.923076923078,-94
29984.615384615387,-96
29992.30769230769,-94
30000.0,-89
30007.69230769231,-87
30015.384615384617,-92
30023.076923076926,-99
30030.76923076923,-103
30038.46153846154,-103
30046.153846153848,-99
30053.846153846156,-77
30061.53846153846,-51
30069.23076923077,-49
30076.923076923078,-54
30084.615384615387,-51
30092.30769230769,-59
30100.0,-73
30107.69230769231,-82
30115.384615384617,-84
30123.076923076926,-82
30130.76923076923,-77
30138.46153846154,-77
30146.153846153848,-84
30153.846153846156,-87
30161.53846153846,-87
30169.23076923077,-89
30176.923076923078,-92
30184.615384615387,-87
30192.30769230769,-82
30200.0,-84
30207.69230769231,-92
30215.384615384617,-92
30223.076923076926,-127
30230.76923076923,-261
30238.46153846154,-351
30246.153846153848,-143
30253.846153846156,438
30261.53846153846,1411
30269.23076923077,2315
30276.923076923078,1998
30284.615384615387,493
30292.30769230769,-460
30300.0,-309
30307.69230769231,-198
30315.384615384617,-382
30323.076923076926,-365
30330.76923076923,-280
30338.46153846154,-311
30346.153846153848,-306
30353.846153846156,-259
30361.53846153846,-247
30369.23076923077,-238
30376.923076923078,-210
30384.615384615387,-207
30392.30769230769,-207
30400.0,-177
30407.69230769231,-148
30415.384615384617,-141
30423.076923076926,-132
30430.76923076923,-118
30438.46153846154,-101
30446.153846153848,-77
30453.846153846156,-44
30461.53846153846,-14
30469.23076923077,14
30476.923076923078,37
30484.615384615387,68
30492.30769230769,103
30500.0,125
30507.69230769231,139
30515.384615384617,141
30523.076923076926,120
30530.76923076923,70
30538.46153846154,-2
30546.153846153848,-68
30553.846153846156,-106
30561.53846153846,-146
30569.23076923077,-186
30576.923076923078,-198
30584.615384615387,-200
30592.30769230769,-202
30600.0,-198
30607.69230769231,-188
30615.384615384617,-188
30623.076923076926,-181
30630.76923076923,-167
30638.46153846154,-158
30646.153846153848,-151
30653.846153846156,-141
30661.53846153846,-139
30669.23076923077,-134
30676.923076923078,-132
30684.615384615387,-127
30692.30769230769,-122
30700.0,-120
30707.69230769231,-120
30715.384615384617,-118
30723.076923076926,-115
30730.76923076923,-113
30738.46153846154,-118
30746.153846153848,-120
30753.846153846156,-115
30761.53846153846,-110
30769.23076923077,-108
30776.923076923078,-106
30784.615384615387,-108
30792.30769230769,-113
30800.0,-108
30807.69230769231,-101
30815.384615384617,-101
30823.076923076926,-103
30830.76923076923,-106
30838.46153846154,-103
30846.153846153848,-103
30853.846153846156,-103
30861.53846153846,-96
30869.23076923077,-96
30876.923076923078,-99
30884.615384615387,-99
30892.30769230769,-94
30900.0,-94
30907.69230769231,-94
30915.384615384617,-92
30923.076923076926,-89
30930.76923076923,-87
30938.46153846154,-92
30946.153846153848,-96
30953.846153846156,-84
30961.53846153846,-87
30969.23076923077,-103
30976.923076923078,-108
30984.615384615387,-101
30992.30769230769,-103
31000.0,-101
31007.69230769231,-75
31015.384615384617,-51
31023.076923076926,-44
31030.76923076923,-44
31038.46153846154,-51
31046.153846153848,-56
31053.846153846156,-68
31061.53846153846,-87
31069.23076923077,-82
31076.923076923078,-70
31084.615384615387,-80
31092.30769230769,-80
31100.0,-75
31107.69230769231,-80
31115.384615384617,-84
31123.076923076926,-80
31130.76923076923,-77
31138.46153846154,-80
31146.153846153848,-77
31153.846153846156,-77
31161.53846153846,-77
31169.23076923077,-84
31176.923076923078,-132
31184.615384615387,-250
31192.30769230769,-292
31200.0,-42
31207.69230769231,582
31215.384615384617,1555
31223.076923076926,2237
31230.76923076923,1607
31238.46153846154,167
31246.153846153848,-457
31253.846153846156,-247
31261.53846153846,-231
31269.23076923077,-370
31276.923076923078,-316
31284.615384615387,-271
31292.30769230769,-299
31300.0,-273
31307.69230769231,-238
31315.384615384617,-233
31323.076923076926,-219
31330.76923076923,-195
31338.46153846154,-184
31346.153846153848,-167
31353.846153846156,-155
31361.53846153846,-146
31369.23076923077,-129
31376.923076923078,-115
31384.615384615387,-106
31392.30769230769,-84
31400.0,-61
31407.69230769231,-42
31415.384615384617,-16
31423.076923076926,11
31430.76923076923,40
31438.46153846154,68
31446.153846153848,92
31453.846153846156,115
31461.53846153846,127
31469.23076923077,118
31476.923076923078,101
31484.615384615387,66
31492.30769230769,2
31500.0,-63
31507.69230769231,-115
31515.384615384617,-155
31523.076923076926,-184
31530.76923076923,-191
31538.46153846154,-198
31546.153846153848,-202
31553.846153846156,-195
31561.53846153846,-188
31569.23076923077,-181
31576.923076923078,-169
31584.615384615387,-162
31592.30769230769,-155
31600.0,-151
31607.69230769231,-141
31615.384615384617,-132
31623.076923076926,-127
31630.76923076923,-127
31638.46153846154,-122
31646.153846153848,-118
31653.846153846156,-113
31661.53846153846,-110
31669.23076923077,-110
31676.923076923078,-113
31684.615384615387,-115
31692.30769230769,-110
31700.0,-108
31707.69230769231,-110
31715.384615384617,-110
31723.076923076926,-110
31730.76923076923,-110
31738.46153846154,-110
31746.153846153848,-115
31753.846153846156,-120
31761.53846153846,-113
31769.23076923077,-108
31776.923076923078,-108
31784.615384615387,-106
31792.30769230769,-99
31800.0,-96
31807.69230769231,-101
31815.384615384617,-99
31823.076923076926,-96
31830.76923076923,-92
31838.46153846154,-84
31846.153846153848,-87
31853.846153846156,-87
31861.53846153846,-77
31869.23076923077,-80
31876.923076923078,-87
31884.615384615387,-80
31892.30769230769,-70
31900.0,-77
31907.69230769231,-80
31915.384615384617,-73
31923.076923076926,-73
31930.76923076923,-66
31938.46153846154,-59
31946.153846153848,-73
31953.846153846156,-75
31961.53846153846,-68
31969.23076923077,-73
31976.923076923078,-80
31984.615384615387,-75
31992.30769230769,-54
32000.0,-30
32007.69230769231,-21
32015.384615384617,-21
32023.076923076926,-25
32030.76923076923,-35
32038.46153846154,-49
32046.153846153848,-63
32053.846153846156,-77
32061.53846153846,-70
32069.23076923077,-61
32076.923076923078,-66
32084.615384615387,-61
32092.30769230769,-54
32100.0,-66
32107.69230769231,-77
32115.384615384617,-66
32123.076923076926,-56
32130.76923076923,-61
32138.46153846154,-70
32146.153846153848,-68
32153.846153846156,-66
32161.53846153846,-106
32169.23076923077,-214
32176.923076923078,-273
32184.615384615387,-82
32192.30769230769,474
32200.0,1425
32207.69230769231,2253
32215.384615384617,1852
32223.076923076926,384
32230.76923076923,-453
32238.46153846154,-259
32246.153846153848,-167
32253.846153846156,-354
32261.53846153846,-330
32269.23076923077,-243
32276.923076923078,-276
32284.615384615387,-276
32292.30769230769,-226
32300.0,-210
32307.69230769231,-193
32315.384615384617,-169
32323.076923076926,-169
32330.76923076923,-160
32338.46153846154,-129
32346.153846153848,-113
32353.846153846156,-110
32361.53846153846,-103
32369.23076923077,-89
32376.923076923078,-66
32384.615384615387,-37
32392.30769230769,-16
32400.0,9
32407.69230769231,40
32415.384615384617,61
32423.076923076926,82
32430.76923076923,120
32438.46153846154,143
32446.153846153848,148
32453.846153846156,155
32461.53846153846,148
32469.23076923077,110
32476.923076923078,51
32484.615384615387,-9
32492.30769230769,-63
32500.0,-115
32507.69230769231,-148
32515.384615384617,-165
32523.076923076926,-179
32530.76923076923,-181
32538.46153846154,-169
32546.153846153848,-167
32553.846153846156,-167
32561.53846153846,-160
32569.23076923077,-146
32576.923076923078,-129
32584.615384615387,-127
32592.30769230769,-127
32600.0,-120
32607.69230769231,-115
32615.384615384617,-113
32623.076923076926,-103
32630.76923076923,-101
32638.46153846154,-106
32646.153846153848,-106
32653.846153846156,-96
32661.53846153846,-92
32669.23076923077,-94
32676.923076923078,-96
32684.615384615387,-101
32692.30769230769,-99
32700.0,-92
32707.69230769231,-89
32715.384615384617,-92
32723.076923076926,-92
32730.76923076923,-89
32738.46153846154,-82
32746.153846153848,-80
32753.846153846156,-84
32761.53846153846,-92
32769.23076923077,-92
32776.92307692308,-82
32784.61538461538,-77
32792.307692307695,-75
32800.0,-70
32807.69230769231,-70
32815.38461538462,-68
32823.07692307692,-66
32830.769230769234,-63
32838.46153846154,-63
32846.153846153844,-73
32853.846153846156,-75
32861.53846153846,-56
32869.23076923077,-33
32876.92307692308,-25
32884.61538461538,-16
32892.307692307695,-14
32900.0,-35
32907.69230769231,-49
32915.38461538462,-42
32923.07692307692,-42
32930.769230769234,-51
32938.46153846154,-49
32946.153846153844,-44
32953.846153846156,-54
32961.53846153846,-59
32969.23076923077,-44
32976.92307692308,-42
32984.61538461538,-61
32992.307692307695,-59
33000.0,-51
33007.69230769231,-59
33015.38461538462,-68
33023.07692307692,-151
33030.769230769234,-306
33038.46153846154,-266
33046.153846153844,162
33053.846153846156,979
33061.53846153846,2024
33069.23076923077,2341
33076.92307692308,1137
33084.61538461538,-269
33092.307692307695,-422
33100.0,-120
33107.69230769231,-247
33115.38461538462,-346
33123.07692307692,-245
33130.769230769234,-238
33138.46153846154,-257
33146.153846153844,-207
33153.846153846156,-198
33161.53846153846,-205
33169.23076923077,-177
33176.92307692308,-160
33184.61538461538,-160
33192.307692307695,-132
33200.0,-108
33207.69230769231,-103
33215.38461538462,-89
33223.07692307692,-68
33230.769230769234,-56
33238.46153846154,-35
33246.153846153844,-2
33253.846153846156,23
33261.53846153846,44
33269.23076923077,80
33276.92307692308,110
33284.61538461538,143
33292.307692307695,179
33300.0,193
33307.69230769231,184
33315.38461538462,177
33323.07692307692,139
33330.769230769234,66
33338.46153846154,0
33346.153846153844,-54
33353.846153846156,-103
33361.53846153846,-153
33369.23076923077,-184
33376.92307692308,-188
33384.61538461538,-184
33392.307692307695,-188
33400.0,-184
33407.69230769231,-172
33415.38461538462,-167
33423.07692307692,-160
33430.769230769234,-151
33438.46153846154,-143
33446.153846153844,-143
33453.846153846156,-139
33461.53846153846,-125
33469.23076923077,-122
33476.92307692308,-129
33484.61538461538,-127
33492.307692307695,-118
33500.0,-115
33507.69230769231,-115
33515.38461538462,-118
33523.07692307692,-118
33530.769230769234,-118
33538.46153846154,-115
33546.153846153844,-113
33553.846153846156,-110
33561.53846153846,-113
33569.23076923077,-113
33576.92307692308,-108
33584.61538461538,-106
33592.307692307695,-110
33600.0,-110
33607.69230769231,-106
33615.38461538462,-106
33623.07692307692,-110
33630.769230769234,-110
33638.46153846154,-113
33646.153846153844,-120
33653.846153846156,-113
33661.53846153846,-87
33669.23076923077,-70
33676.92307692308,-61
33684.61538461538,-49
33692.307692307695,-54
33700.0,-75
33707.69230769231,-87
33715.38461538462,-92
33723.07692307692,-92
33730.769230769234,-87
33738.46153846154,-87
33746.153846153844,-84
33753.846153846156,-84
33761.53846153846,-89
33769.23076923077,-94
33776.92307692308,-94
33784.61538461538,-87
33792.307692307695,-75
33800.0,-82
33807.69230769231,-96
33815.38461538462,-118
33823.07692307692,-214
33830.769230769234,-332
33838.46153846154,-217
33846.153846153844,278
33853.846153846156,1184
33861.53846153846,2194
33869.23076923077,2220
33876.92307692308,856
33884.61538461538,-354
33892.307692307695,-370
33900.0,-165
33907.69230769231,-330
33915.38461538462,-375
33923.07692307692,-271
33930.769230769234,-283
33938.46153846154,-302
33946.153846153844,-261
33953.846153846156,-238
33961.53846153846,-226
33969.23076923077,-205
33976.92307692308,-191
33984.61538461538,-184
33992.307692307695,-169
34000.0,-151
34007.69230769231,-134
34015.38461538462,-120
34023.07692307692,-106
34030.769230769234,-89
34038.46153846154,-73
34046.153846153844,-51
34053.846153846156,-16
34061.53846153846,18
34069.23076923077,42
34076.92307692308,68
34084.61538461538,101
34092.307692307695,129
34100.0,146
34107.69230769231,146
34115.38461538462,122
34123.07692307692,73
34130.769230769234,4
34138.46153846154,-54
34146.153846153844,-103
34153.846153846156,-143
34161.53846153846,-174
34169.23076923077,-193
34176.92307692308,-198
34184.61538461538,-198
34192.307692307695,-191
34200.0,-181
34207.69230769231,-179
34215.38461538462,-179
34223.07692307692,-165
34230.769230769234,-153
34238.46153846154,-153
34246.153846153844,-143
34253.846153846156,-129
34261.53846153846,-132
34269.23076923077,-136
34276.92307692308,-134
34284.61538461538,-127
34292.307692307695,-118
34300.0,-118
34307.69230769231,-120
34315.38461538462,-113
34323.07692307692,-108
34330.769230769234,-103
34338.46153846154,-103
34346.153846153844,-122
34353.846153846156,-134
34361.53846153846,-115
34369.23076923077,-103
34376.92307692308,-108
34384.61538461538,-106
34392.307692307695,-103
34400.0,-106
34407.69230769231,-103
34415.38461538462,-94
34423.07692307692,-94
34430.769230769234,-96
34438.46153846154,-94
34446.153846153844,-96
34453.846153846156,-106
34461.53846153846,-108
34469.23076923077,-94
34476.92307692308,-61
34484.61538461538,-44
34492.307692307695,-47
34500.0,-44
34507.69230769231,-49
34515.38461538462,-63
34523.07692307692,-75
34530.769230769234,-77
34538.46153846154,-73
34546.153846153844,-70
34553.846153846156,-77
34561.53846153846,-80
34569.23076923077,-80
34576.92307692308,-77
34584.61538461538,-77
34592.307692307695,-75
34600.0,-73
34607.69230769231,-70
34615.38461538462,-73
34623.07692307692,-75
34630.769230769234,-82
34638.46153846154,-141
34646.153846153844,-271
34653.846153846156,-290
34661.53846153846,7
34669.23076923077,677
34676.92307692308,1703
34684.61538461538,2369
34692.307692307695,1616
34700.0,96
34707.69230769231,-481
34715.38461538462,-221
34723.07692307692,-224
34730.769230769234,-379
34738.46153846154,-309
34746.153846153844,-259
34753.846153846156,-299
34761.53846153846,-276
34769.23076923077,-226
34776.92307692308,-228
34784.61538461538,-233
34792.307692307695,-202
34800.0,-179
34807.69230769231,-167
34815.38461538462,-151
34823.07692307692,-134
34830.769230769234,-122
34838.46153846154,-110
34846.153846153844,-94
34853.846153846156,-70
34861.53846153846,-44
34869.23076923077,-21
34876.92307692308,2
34884.61538461538,28
34892.307692307695,56
34900.0,92
34907.69230769231,122
34915.38461538462,141
34923.07692307692,151
34930.769230769234,151
34938.46153846154,118
34946.153846153844,49
34953.846153846156,-14
34961.53846153846,-66
34969.23076923077,-115
34976.92307692308,-153
34984.61538461538,-174
34992.307692307695,-184
35000.0,-188
35007.69230769231,-188
35015.38461538462,-177
35023.07692307692,-169
35030.769230769234,-172
35038.46153846154,-160
35046.153846153844,-141
35053.846153846156,-139
35061.53846153846,-136
35069.23076923077,-132
35076.92307692308,-125
35084.61538461538,-118
35092.307692307695,-113
35100.0,-110
35107.69230769231,-108
35115.38461538462,-108
35123.07692307692,-106
35130.769230769234,-99
35138.46153846154,-99
35146.153846153844,-106
35153.846153846156,-106
35161.53846153846,-101
35169.23076923077,-99
35176.92307692308,-103
35184.61538461538,-106
35192.307692307695,-106
35200.0,-103
35207.69230769231,-106
35215.38461538462,-99
35223.07692307692,-94
35230.769230769234,-99
35238.46153846154,-101
35246.153846153844,-99
35253.846153846156,-94
35261.53846153846,-87
35269.23076923077,-82
35276.92307692308,-92
35284.61538461538,-96
35292.307692307695,-94
35300.0,-89
35307.69230769231,-84
35315.38461538462,-84
35323.07692307692,-82
35330.769230769234,-82
35338.46153846154,-77
35346.153846153844,-73
35353.846153846156,-73
35361.53846153846,-75
35369.23076923077,-77
35376.92307692308,-77
35384.61538461538,-75
35392.307692307695,-68
35400.0,-70
35407.69230769231,-73
35415.38461538462,-70
35423.07692307692,-73
35430.769230769234,-82
35438.46153846154,-80
35446.153846153844,-70
35453.846153846156,-70
35461.53846153846,-75
35469.23076923077,-80
35476.92307692308,-70
35484.61538461538,-40
35492.307692307695,-21
35500.0,-18
35507.69230769231,-25
35515.38461538462,-33
35523.07692307692,-47
35530.769230769234,-61
35538.46153846154,-61
35546.153846153844,-49
35553.846153846156,-51
35561.53846153846,-66
35569.23076923077,-61
35576.92307692308,-56
35584.61538461538,-63
35592.307692307695,-63
35600.0,-56
35607.69230769231,-59
35615.38461538462,-61
35623.07692307692,-56
35630.769230769234,-56
35638.46153846154,-61
35646.153846153844,-75
35653.846153846156,-155
35661.53846153846,-285
35669.23076923077,-252
35676.92307692308,127
35684.61538461538,913
35692.307692307695,1989
35700.0,2416
35707.69230769231,1345
35715.38461538462,-101
35723.07692307692,-417
35730.769230769234,-169
35738.46153846154,-269
35746.153846153844,-382
35753.846153846156,-283
35761.53846153846,-264
35769.23076923077,-302
35776.92307692308,-261
35784.61538461538,-228
35792.307692307695,-238
35800.0,-224
35807.69230769231,-188
35815.38461538462,-174
35823.07692307692,-169
35830.769230769234,-153
35838.46153846154,-136
35846.153846153844,-127
35853.846153846156,-113
35861.53846153846,-89
35869.23076923077,-70
35876.92307692308,-54
35884.61538461538,-35
35892.307692307695,-4
35900.0,33
35907.69230769231,61
35915.38461538462,84
35923.07692307692,113
35930.769230769234,136
35938.46153846154,151
35946.153846153844,153
35953.846153846156,139
35961.53846153846,87
35969.23076923077,25
35976.92307692308,-23
35984.61538461538,-70
35992.307692307695,-120
36000.0,-151
36007.69230769231,-167
36015.38461538462,-186
36023.07692307692,-186
36030.769230769234,-172
36038.46153846154,-165
36046.153846153844,-158
36053.846153846156,-146
36061.53846153846,-139
36069.23076923077,-132
36076.92307692308,-118
36084.61538461538,-110
36092.307692307695,-110
36100.0,-108
36107.69230769231,-106
36115.38461538462,-99
36123.07692307692,-89
36130.769230769234,-84
36138.46153846154,-84
36146.153846153844,-84
36153.846153846156,-87
36161.53846153846,-96
36169.23076923077,-103
36176.92307692308,-99
36184.61538461538,-89
36192.307692307695,-89
36200.0,-96
36207.69230769231,-99
36215.38461538462,-94
36223.07692307692,-89
36230.769230769234,-87
36238.46153846154,-84
36246.153846153844,-89
36253.846153846156,-87
36261.53846153846,-82
36269.23076923077,-84
36276.92307692308,-84
36284.61538461538,-84
36292.307692307695,-87
36300.0,-82
36307.69230769231,-82
36315.38461538462,-82
36323.07692307692,-70
36330.769230769234,-66
36338.46153846154,-70
36346.153846153844,-70
36353.846153846156,-68
36361.53846153846,-66
36369.23076923077,-61
36376.92307692308,-56
36384.61538461538,-56
36392.307692307695,-56
36400.0,-54
36407.69230769231,-54
36415.38461538462,-61
36423.07692307692,-61
36430.769230769234,-59
36438.46153846154,-56
36446.153846153844,-54
36453.846153846156,-54
36461.53846153846,-51
36469.23076923077,-44
36476.92307692308,-44
36484.61538461538,-51
36492.307692307695,-47
36500.0,-40
36507.69230769231,-47
36515.38461538462,-54
36523.07692307692,-51
36530.769230769234,-51
36538.46153846154,-47
36546.153846153844,-40
36553.846153846156,-56
36561.53846153846,-77
36569.23076923077,-66
36576.92307692308,-47
36584.61538461538,-30
36592.307692307695,-11
36600.0,0
36607.69230769231,-4
36615.38461538462,-18
36623.07692307692,-23
36630.769230769234,-28
36638.46153846154,-44
36646.153846153844,-42
36653.846153846156,-25
36661.53846153846,-30
36669.23076923077,-37
36676.92307692308,-35
36684.61538461538,-35
36692.307692307695,-40
36700.0,-40
36707.69230769231,-40
36715.38461538462,-42
36723.07692307692,-40
36730.769230769234,-35
36738.46153846154,-35
36746.153846153844,-68
36753.846153846156,-184
36761.53846153846,-309
36769.23076923077,-191
36776.92307692308,313
36784.61538461538,1234
36792.307692307695,2270
36800.0,2334
36807.69230769231,960
36815.38461538462,-318
36823.07692307692,-368
36830.769230769234,-139
36838.46153846154,-299
36846.153846153844,-363
36853.846153846156,-261
36861.53846153846,-266
36869.23076923077,-290
36876.92307692308,-245
36884.61538461538,-219
36892.307692307695,-214
36900.0,-198
36907.69230769231,-184
36915.38461538462,-174
36923.07692307692,-153
36930.769230769234,-136
36938.46153846154,-127
36946.153846153844,-115
36953.846153846156,-99
36961.53846153846,-84
36969.23076923077,-70
36976.92307692308,-49
36984.61538461538,-25
36992.307692307695,2
37000.0,30
37007.69230769231,56
37015.38461538462,84
37023.07692307692,113
37030.769230769234,134
37038.46153846154,141
37046.153846153844,143
37053.846153846156,129
37061.53846153846,82
37069.23076923077,21
37076.92307692308,-33
37084.61538461538,-84
37092.307692307695,-132
37100.0,-167
37107.69230769231,-177
37115.38461538462,-174
37123.07692307692,-179
37130.769230769234,-177
37138.46153846154,-167
37146.153846153844,-160
37153.846153846156,-151
37161.53846153846,-136
37169.23076923077,-136
37176.92307692308,-134
37184.61538461538,-127
37192.307692307695,-120
37200.0,-115
37207.69230769231,-110
37215.38461538462,-106
37223.07692307692,-103
37230.769230769234,-103
37238.46153846154,-101
37246.153846153844,-99
37253.846153846156,-99
37261.53846153846,-101
37269.23076923077,-103
37276.92307692308,-106
37284.61538461538,-103
37292.307692307695,-101
37300.0,-103
37307.69230769231,-108
37315.38461538462,-110
37323.07692307692,-103
37330.769230769234,-99
37338.46153846154,-99
37346.153846153844,-96
37353.846153846156,-94
37361.53846153846,-96
37369.23076923077,-92
37376.92307692308,-89
37384.61538461538,-87
37392.307692307695,-84
37400.0,-82
37407.69230769231,-82
37415.38461538462,-77
37423.07692307692,-75
37430.769230769234,-82
37438.46153846154,-82
37446.153846153844,-77
37453.846153846156,-80
37461.53846153846,-80
37469.23076923077,-73
37476.92307692308,-70
37484.61538461538,-75
37492.307692307695,-73
37500.0,-70
37507.69230769231,-70
37515.38461538462,-73
37523.07692307692,-73
37530.769230769234,-75
37538.46153846154,-80
37546.153846153844,-75
37553.846153846156,-59
37561.53846153846,-35
37569.23076923077,-18
37576.92307692308,-21
37584.61538461538,-37
37592.307692307695,-47
37600.0,-49
37607.69230769231,-63
37615.38461538462,-70
37623.07692307692,-56
37630.769230769234,-56
37638.46153846154,-66
37646.153846153844,-66
37653.846153846156,-63
37661.53846153846,-63
37669.23076923077,-66
37676.92307692308,-66
37684.61538461538,-66
37692.307692307695,-66
37700.0,-61
37707.69230769231,-61
37715.38461538462,-99
37723.07692307692,-228
37730.769230769234,-328
37738.46153846154,-143
37746.153846153844,401
37753.846153846156,1331
37761.53846153846,2279
37769.23076923077,2107
37776.92307692308,658
37784.61538461538,-391
37792.307692307695,-309
37800.0,-167
37807.69230769231,-339
37815.38461538462,-351
37823.07692307692,-269
37830.769230769234,-283
37838.46153846154,-278
37846.153846153844,-233
37853.846153846156,-221
37861.53846153846,-217
37869.23076923077,-193
37876.92307692308,-174
37884.61538461538,-162
37892.307692307695,-148
37900.0,-134
37907.69230769231,-122
37915.38461538462,-106
37923.07692307692,-89
37930.769230769234,-77
37938.46153846154,-56
37946.153846153844,-30
37953.846153846156,-11
37961.53846153846,16
37969.23076923077,54
37976.92307692308,82
37984.61538461538,106
37992.307692307695,132
38000.0,151
38007.69230769231,155
38015.38461538462,146
38023.07692307692,110
38030.769230769234,49
38038.46153846154,-16
38046.153846153844,-68
38053.846153846156,-113
38061.53846153846,-146
38069.23076923077,-165
38076.92307692308,-177
38084.61538461538,-179
38092.307692307695,-179
38100.0,-172
38107.69230769231,-165
38115.38461538462,-158
38123.07692307692,-151
38130.769230769234,-143
38138.46153846154,-139
38146.153846153844,-129
38153.846153846156,-120
38161.53846153846,-115
38169.23076923077,-118
38176.92307692308,-118
38184.61538461538,-108
38192.307692307695,-103
38200.0,-106
38207.69230769231,-101
38215.38461538462,-99
38223.07692307692,-99
38230.769230769234,-96
38238.46153846154,-94
38246.153846153844,-94
38253.846153846156,-92
38261.53846153846,-96
38269.23076923077,-106
38276.92307692308,-103
38284.61538461538,-94
38292.307692307695,-92
38300.0,-92
38307.69230769231,-92
38315.38461538462,-96
38323.07692307692,-99
38330.769230769234,-94
38338.46153846154,-87
38346.153846153844,-82
38353.846153846156,-82
38361.53846153846,-84
38369.23076923077,-84
38376.92307692308,-75
38384.61538461538,-73
38392.307692307695,-73
38400.0,-68
38407.69230769231,-68
38415.38461538462,-68
38423.07692307692,-68
38430.769230769234,-63
38438.46153846154,-61
38446.153846153844,-61
38453.846153846156,-61
38461.53846153846,-56
38469.23076923077,-56
38476.92307692308,-61
38484.61538461538,-59
38492.307692307695,-56
38500.0,-59
38507.69230769231,-61
38515.38461538462,-63
38523.07692307692,-66
38530.769230769234,-56
38538.46153846154,-30
38546.153846153844,-16
38553.846153846156,-16
38561.53846153846,-16
38569.23076923077,-21
38576.92307692308,-35
38584.61538461538,-49
38592.307692307695,-54
38600.0,-47
38607.69230769231,-47
38615.38461538462,-51
38623.07692307692,-51
38630.769230769234,-51
38638.46153846154,-49
38646.153846153844,-51
38653.846153846156,-56
38661.53846153846,-54
38669.23076923077,-47
38676.92307692308,-44
38684.61538461538,-42
38692.307692307695,-49
38700.0,-80
38707.69230769231,-177
38715.38461538462,-287
38723.07692307692,-188
38730.769230769234,269
38738.46153846154,1135
38746.153846153844,2159
38753.846153846156,2282
38761.53846153846,988
38769.23076923077,-273
38776.92307692308,-361
38784.61538461538,-148
38792.307692307695,-295
38800.0,-358
38807.69230769231,-271
38815.38461538462,-266
38823.07692307692,-280
38830.769230769234,-250
38838.46153846154,-226
38846.153846153844,-210
38853.846153846156,-186
38861.53846153846,-169
38869.23076923077,-158
38876.92307692308,-141
38884.61538461538,-127
38892.307692307695,-113
38900.0,-94
38907.69230769231,-77
38915.38461538462,-66
38923.07692307692,-51
38930.769230769234,-25
38938.46153846154,2
38946.153846153844,25
38953.846153846156,56
38961.53846153846,94
38969.23076923077,118
38976.92307692308,136
38984.61538461538,162
38992.307692307695,177
39000.0,172
39007.69230769231,146
39015.38461538462,87
39023.07692307692,16
39030.769230769234,-37
39038.46153846154,-87
39046.153846153844,-129
39053.846153846156,-151
39061.53846153846,-162
39069.23076923077,-179
39076.92307692308,-184
39084.61538461538,-167
39092.307692307695,-148
39100.0,-143
39107.69230769231,-143
39115.38461538462,-143
39123.07692307692,-127
39130.769230769234,-110
39138.46153846154,-108
39146.153846153844,-113
39153.846153846156,-110
39161.53846153846,-103
39169.23076923077,-94
39176.92307692308,-94
39184.61538461538,-92
39192.307692307695,-82
39200.0,-84
39207.69230769231,-89
39215.38461538462,-84
39223.07692307692,-84
39230.769230769234,-87
39238.46153846154,-82
39246.153846153844,-77
39253.846153846156,-89
39261.53846153846,-96
39269.23076923077,-84
39276.92307692308,-77
39284.61538461538,-80
39292.307692307695,-84
39300.0,-84
39307.69230769231,-82
39315.38461538462,-75
39323.07692307692,-70
39330.769230769234,-75
39338.46153846154,-87
39346.153846153844,-87
39353.846153846156,-77
39361.53846153846,-73
39369.23076923077,-70
39376.92307692308,-66
39384.61538461538,-61
39392.307692307695,-59
39400.0,-61
39407.69230769231,-61
39415.38461538462,-56
39423.07692307692,-51
39430.769230769234,-49
39438.46153846154,-49
39446.153846153844,-51
39453.846153846156,-51
39461.53846153846,-47
39469.23076923077,-42
39476.92307692308,-49
39484.61538461538,-56
39492.307692307695,-51
39500.0,-47
39507.69230769231,-35
39515.38461538462,-16
39523.07692307692,-2
39530.769230769234,-4
39538.46153846154,-14
39546.153846153844,-21
39553.846153846156,-30
39561.53846153846,-47
39569.23076923077,-47
39576.92307692308,-35
39584.61538461538,-33
39592.307692307695,-37
39600.0,-40
39607.69230769231,-42
39615.38461538462,-54
39623.07692307692,-54
39630.769230769234,-47
39638.46153846154,-44
39646.153846153844,-44
39653.846153846156,-44
39661.53846153846,-47
39669.23076923077,-51
39676.92307692308,-92
39684.61538461538,-224
39692.307692307695,-313
39700.0,-89
39707.69230769231,533
39715.38461538462,1541
39723.07692307692,2407
39730.769230769234,1987
39738.46153846154,438
39746.153846153844,-448
39753.846153846156,-250
39761.53846153846,-160
39769.23076923077,-351
39776.92307692308,-323
39784.61538461538,-243
39792.307692307695,-276
39800.0,-271
39807.69230769231,-226
39815.38461538462,-217
39823.07692307692,-202
39830.769230769234,-179
39838.46153846154,-172
39846.153846153844,-169
39853.846153846156,-148
39861.53846153846,-129
39869.23076923077,-118
39876.92307692308,-101
39884.61538461538,-87
39892.307692307695,-70
39900.0,-54
39907.69230769231,-28
39915.38461538462,0
39923.07692307692,23
39930.769230769234,49
39938.46153846154,80
39946.153846153844,110
39953.846153846156,139
39961.53846153846,162
39969.23076923077,169
39976.92307692308,151
39984.61538461538,108
39992.307692307695,51
40000.0,-4
40007.69230769231,-56
40015.38461538462,-108
40023.07692307692,-148
40030.769230769234,-165
40038.46153846154,-172
40046.153846153844,-177
40053.846153846156,-174
40061.53846153846,-169
40069.23076923077,-165
40076.92307692308,-153
40084.61538461538,-139
40092.307692307695,-136
40100.0,-136
40107.69230769231,-122
40115.38461538462,-110
40123.07692307692,-110
40130.769230769234,-110
40138.46153846154,-103
40146.153846153844,-96
40153.846153846156,-99
40161.53846153846,-96
40169.23076923077,-92
40176.92307692308,-92
40184.61538461538,-89
40192.307692307695,-92
40200.0,-94
40207.69230769231,-87
40215.38461538462,-89
40223.07692307692,-96
40230.769230769234,-94
40238.46153846154,-92
40246.153846153844,-94
40253.846153846156,-92
40261.53846153846,-87
40269.23076923077,-89
40276.92307692308,-87
40284.61538461538,-84
40292.307692307695,-87
40300.0,-87
40307.69230769231,-77
40315.38461538462,-75
40323.07692307692,-77
40330.769230769234,-77
40338.46153846154,-73
40346.153846153844,-70
40353.846153846156,-82
40361.53846153846,-82
40369.23076923077,-70
40376.92307692308,-68
40384.61538461538,-75
40392.307692307695,-66
40400.0,-61
40407.69230769231,-63
40415.38461538462,-59
40423.07692307692,-54
40430.769230769234,-59
40438.46153846154,-61
40446.153846153844,-56
40453.846153846156,-56
40461.53846153846,-56
40469.23076923077,-61
40476.92307692308,-66
40484.61538461538,-63
40492.307692307695,-61
40500.0,-66
40507.69230769231,-68
40515.38461538462,-51
40523.07692307692,-23
40530.769230769234,-9
40538.46153846154,-11
40546.153846153844,-11
40553.846153846156,-21
40561.53846153846,-33
40569.23076923077,-44
40576.92307692308,-49
40584.61538461538,-47
40592.307692307695,-42
40600.0,-42
40607.69230769231,-47
40615.38461538462,-47
40623.07692307692,-47
40630.769230769234,-47
40638.46153846154,-49
40646.153846153844,-47
40653.846153846156,-47
40661.53846153846,-47
40669.23076923077,-42
40676.92307692308,-44
40684.61538461538,-92
40692.307692307695,-214
40700.0,-292
40707.69230769231,-89
40715.38461538462,474
40723.07692307692,1439
40730.769230769234,2360
40738.46153846154,2072
40746.153846153844,566
40753.846153846156,-408
40761.53846153846,-273
40769.23076923077,-162
40776.92307692308,-342
40784.61538461538,-330
40792.307692307695,-250
40800.0,-276
40807.69230769231,-269
40815.38461538462,-224
40823.07692307692,-217
40830.769230769234,-210
40838.46153846154,-184
40846.153846153844,-172
40853.846153846156,-167
40861.53846153846,-148
40869.23076923077,-129
40876.92307692308,-120
40884.61538461538,-106
40892.307692307695,-84
40900.0,-66
40907.69230769231,-49
40915.38461538462,-28
40923.07692307692,-2
40930.769230769234,28
40938.46153846154,56
40946.153846153844,87
40953.846153846156,115
40961.53846153846,139
40969.23076923077,158
40976.92307692308,172
40984.61538461538,165
40992.307692307695,127
41000.0,75
41007.69230769231,11
41015.38461538462,-47
41023.07692307692,-92
41030.769230769234,-125
41038.46153846154,-151
41046.153846153844,-167
41053.846153846156,-181
41061.53846153846,-181
41069.23076923077,-165
41076.92307692308,-158
41084.61538461538,-155
41092.307692307695,-141
41100.0,-132
41107.69230769231,-127
41115.38461538462,-118
41123.07692307692,-108
41130.769230769234,-103
41138.46153846154,-99
41146.153846153844,-96
41153.846153846156,-94
41161.53846153846,-87
41169.23076923077,-84
41176.92307692308,-82
41184.61538461538,-82
41192.307692307695,-84
41200.0,-84
41207.69230769231,-82
41215.38461538462,-84
41223.07692307692,-82
41230.769230769234,-82
41238.46153846154,-87
41246.153846153844,-82
41253.846153846156,-80
41261.53846153846,-80
41269.23076923077,-80
41276.92307692308,-82
41284.61538461538,-82
41292.307692307695,-77
41300.0,-75
41307.69230769231,-75
41315.38461538462,-73
41323.07692307692,-75
41330.769230769234,-73
41338.46153846154,-68
41346.153846153844,-66
41353.846153846156,-73
41361.53846153846,-73
41369.23076923077,-66
41376.92307692308,-61
41384.61538461538,-59
41392.307692307695,-61
41400.0,-63
41407.69230769231,-56
41415.38461538462,-54
41423.07692307692,-59
41430.769230769234,-54
41438.46153846154,-49
41446.153846153844,-47
41453.846153846156,-47
41461.53846153846,-49
41469.23076923077,-47
41476.92307692308,-47
41484.61538461538,-51
41492.307692307695,-44
41500.0,-42
