timestamp,ecg
0.0,-82
7.6923076923076925,-84
15.384615384615385,-94
23.076923076923077,-96
30.76923076923077,-80
38.46153846153846,-82
46.15384615384615,-82
53.84615384615385,-70
61.53846153846154,-73
69.23076923076923,-75
76.92307692307692,-61
84.61538461538461,-63
92.3076923076923,-80
100.0,-77
107.6923076923077,-61
115.38461538461539,-49
123.07692307692308,-28
130.76923076923077,-11
138.46153846153845,-9
146.15384615384616,-14
153.84615384615384,-28
161.53846153846155,-14
169.23076923076923,-2
176.92307692307693,-32
184.6153846153846,-51
192.30769230769232,-35
200.0,-30
207.6923076923077,-51
215.3846153846154,-68
223.0769230769231,-44
230.76923076923077,-21
238.46153846153848,-37
246.15384615384616,-56
253.84615384615384,-54
261.53846153846155,-61
269.2307692307692,-58
276.9230769230769,-47
284.61538461538464,-51
292.3076923076923,-91
300.0,-193
307.6923076923077,-263
315.3846153846154,-96
323.0769230769231,431
330.7692307692308,1366
338.46153846153845,2205
346.1538461538462,1896
353.84615384615387,581
361.53846153846155,-209
369.2307692307692,-122
376.9230769230769,-87
384.61538461538464,-245
392.3076923076923,-233
400.0,-174
407.6923076923077,-212
415.3846153846154,-237
423.0769230769231,-209
430.7692307692308,-202
438.46153846153845,-202
446.1538461538462,-171
453.84615384615387,-150
461.53846153846155,-148
469.2307692307692,-146
476.92307692307696,-134
484.61538461538464,-122
492.3076923076923,-113
500.0,-89
507.6923076923077,-70
515.3846153846154,-54
523.0769230769231,-35
530.7692307692308,-37
538.4615384615385,-23
546.1538461538462,32
553.8461538461538,84
561.5384615384615,110
569.2307692307693,139
576.9230769230769,174
584.6153846153846,193
592.3076923076924,179
600.0,141
607.6923076923077,80
615.3846153846154,0
623.0769230769231,-73
630.7692307692308,-120
638.4615384615385,-141
646.1538461538462,-157
653.8461538461538,-188
661.5384615384615,-204
669.2307692307693,-193
676.9230769230769,-190
684.6153846153846,-202
692.3076923076924,-186
700.0,-167
707.6923076923077,-171
715.3846153846154,-171
723.0769230769231,-160
730.7692307692308,-150
738.4615384615385,-131
746.1538461538462,-122
753.8461538461538,-139
761.5384615384615,-139
769.2307692307693,-113
776.9230769230769,-113
784.6153846153846,-134
792.3076923076924,-122
800.0,-94
807.6923076923077,-94
815.3846153846154,-108
823.0769230769231,-108
830.7692307692308,-110
838.4615384615385,-120
846.1538461538462,-117
853.8461538461539,-113
861.5384615384615,-106
869.2307692307693,-96
876.9230769230769,-87
884.6153846153846,-91
892.3076923076924,-101
900.0,-98
907.6923076923077,-89
915.3846153846154,-89
923.0769230769231,-94
930.7692307692308,-84
938.4615384615385,-68
946.1538461538462,-68
953.8461538461539,-68
961.5384615384615,-56
969.2307692307693,-58
976.9230769230769,-65
984.6153846153846,-65
992.3076923076924,-65
1000.0,-56
1007.6923076923077,-47
1015.3846153846154,-47
1023.0769230769231,-58
1030.7692307692307,-63
1038.4615384615386,-65
1046.1538461538462,-77
1053.8461538461538,-51
1061.5384615384617,7
1069.2307692307693,23
1076.923076923077,-9
1084.6153846153848,-23
1092.3076923076924,-23
1100.0,-32
1107.6923076923076,-47
1115.3846153846155,-56
1123.076923076923,-61
1130.7692307692307,-56
1138.4615384615386,-40
1146.1538461538462,-35
1153.8461538461538,-49
1161.5384615384617,-56
1169.2307692307693,-56
1176.923076923077,-56
1184.6153846153848,-54
1192.3076923076924,-51
1200.0,-47
1207.6923076923076,-56
1215.3846153846155,-113
1223.076923076923,-233
1230.7692307692307,-287
1238.4615384615386,-73
1246.1538461538462,497
1253.8461538461538,1439
1261.5384615384617,2224
1269.2307692307693,1816
1276.923076923077,487
1284.6153846153848,-233
1292.3076923076924,-122
1300.0,-108
1307.6923076923076,-247
1315.3846153846155,-223
1323.076923076923,-188
1330.7692307692307,-216
1338.4615384615386,-209
1346.1538461538462,-183
1353.8461538461538,-183
1361.5384615384617,-174
1369.2307692307693,-155
1376.923076923077,-150
1384.6153846153848,-146
1392.3076923076924,-129
1400.0,-113
1407.6923076923076,-106
1415.3846153846155,-96
1423.076923076923,-80
1430.7692307692307,-68
1438.4615384615386,-54
1446.1538461538462,-28
1453.8461538461538,0
1461.5384615384617,23
1469.2307692307693,51
1476.923076923077,84
1484.6153846153848,115
1492.3076923076924,148
1500.0,179
1507.6923076923076,195
1515.3846153846155,195
1523.076923076923,169
1530.7692307692307,113
1538.4615384615386,47
1546.1538461538462,-21
1553.8461538461538,-80
1561.5384615384617,-129
1569.2307692307693,-155
1576.923076923077,-167
1584.6153846153848,-176
1592.3076923076924,-179
1600.0,-171
1607.6923076923076,-164
1615.3846153846155,-160
1623.076923076923,-153
1630.7692307692307,-143
1638.4615384615386,-136
1646.1538461538462,-124
1653.8461538461538,-117
1661.5384615384617,-113
1669.2307692307693,-101
1676.923076923077,-89
1684.6153846153848,-87
1692.3076923076924,-84
1700.0,-84
1707.6923076923078,-82
1715.3846153846155,-73
1723.076923076923,-70
1730.7692307692307,-73
1738.4615384615386,-73
1746.1538461538462,-73
1753.8461538461538,-70
1761.5384615384617,-56
1769.2307692307693,-56
1776.923076923077,-58
1784.6153846153848,-54
1792.3076923076924,-47
1800.0,-44
1807.6923076923078,-54
1815.3846153846155,-58
1823.076923076923,-42
1830.7692307692307,-23
1838.4615384615386,-4
1846.1538461538462,25
1853.8461538461538,32
1861.5384615384617,9
1869.2307692307693,0
1876.923076923077,-4
1884.6153846153848,-23
1892.3076923076924,-32
1900.0,-14
1907.6923076923078,7
1915.3846153846155,-4
1923.076923076923,-30
1930.7692307692307,-28
1938.4615384615386,-18
1946.1538461538462,-21
1953.8461538461538,-16
1961.5384615384617,-9
1969.2307692307693,-16
1976.923076923077,-21
1984.6153846153848,-9
1992.3076923076924,0
2000.0,-14
2007.6923076923078,-75
2015.3846153846155,-212
2023.076923076923,-275
2030.7692307692307,-25
2038.4615384615386,643
2046.1538461538462,1689
2053.846153846154,2473
2061.5384615384614,1898
2069.2307692307695,384
2076.923076923077,-303
2084.6153846153848,-51
2092.3076923076924,-32
2100.0,-216
2107.6923076923076,-171
2115.3846153846152,-129
2123.0769230769233,-186
2130.769230769231,-174
2138.4615384615386,-131
2146.153846153846,-127
2153.846153846154,-127
2161.5384615384614,-108
2169.2307692307695,-96
2176.923076923077,-91
2184.6153846153848,-75
2192.3076923076924,-58
2200.0,-54
2207.6923076923076,-42
2215.3846153846152,-21
2223.0769230769233,-2
2230.769230769231,16
2238.4615384615386,32
2246.153846153846,56
2253.846153846154,94
2261.5384615384614,136
2269.2307692307695,181
2276.923076923077,219
2284.6153846153848,245
2292.3076923076924,268
2300.0,285
2307.6923076923076,259
2315.3846153846152,202
2323.0769230769233,131
2330.769230769231,47
2338.4615384615386,-25
2346.153846153846,-73
2353.846153846154,-115
2361.5384615384614,-148
2369.2307692307695,-162
2376.923076923077,-157
2384.6153846153848,-143
2392.3076923076924,-150
2400.0,-162
2407.6923076923076,-141
2415.3846153846152,-122
2423.0769230769233,-139
2430.769230769231,-136
2438.4615384615386,-103
2446.153846153846,-91
2453.846153846154,-101
2461.5384615384614,-98
2469.2307692307695,-87
2476.923076923077,-80
2484.6153846153848,-75
2492.3076923076924,-75
2500.0,-77
2507.6923076923076,-70
2515.3846153846152,-61
2523.0769230769233,-65
2530.769230769231,-77
2538.4615384615386,-56
2546.153846153846,-35
2553.846153846154,-44
2561.5384615384614,-54
2569.2307692307695,-44
2576.923076923077,-32
2584.6153846153848,-37
2592.3076923076924,-42
2600.0,-40
2607.6923076923076,-32
2615.3846153846152,-18
2623.0769230769233,9
2630.769230769231,35
2638.4615384615386,32
2646.153846153846,18
2653.846153846154,18
2661.5384615384614,11
2669.2307692307695,-2
2676.923076923077,-7
2684.6153846153848,-7
2692.3076923076924,-2
2700.0,0
2707.6923076923076,-9
2715.3846153846152,-11
2723.0769230769233,-4
2730.769230769231,-4
2738.4615384615386,-9
2746.153846153846,-7
2753.846153846154,-2
2761.5384615384614,-7
2769.2307692307695,-11
2776.923076923077,-21
2784.6153846153848,-65
2792.3076923076924,-195
2800.0,-303
2807.6923076923076,-120
2815.3846153846152,490
2823.0769230769233,1498
2830.769230769231,2421
2838.4615384615386,2153
2846.153846153846,702
2853.846153846154,-223
2861.5384615384614,-96
2869.2307692307695,-37
2876.923076923077,-247
2884.6153846153848,-235
2892.3076923076924,-164
2900.0,-207
2907.6923076923076,-209
2915.3846153846152,-171
2923.0769230769233,-171
2930.769230769231,-169
2938.4615384615386,-148
2946.153846153846,-136
2953.846153846154,-127
2961.5384615384614,-115
2969.2307692307695,-108
2976.923076923077,-96
2984.6153846153848,-80
2992.3076923076924,-65
3000.0,-47
3007.6923076923076,-35
3015.3846153846152,-16
3023.0769230769233,16
3030.769230769231,54
3038.4615384615386,91
3046.153846153846,127
3053.846153846154,155
3061.5384615384614,188
3069.2307692307695,221
3076.923076923077,233
3084.6153846153848,219
3092.3076923076924,176
3100.0,103
3107.6923076923076,18
3115.3846153846152,-37
3123.0769230769233,-73
3130.769230769231,-115
3138.4615384615386,-153
3146.153846153846,-169
3153.846153846154,-171
3161.5384615384614,-171
3169.2307692307695,-167
3176.923076923077,-162
3184.6153846153848,-157
3192.3076923076924,-155
3200.0,-146
3207.6923076923076,-131
3215.3846153846152,-122
3223.0769230769233,-117
3230.769230769231,-115
3238.4615384615386,-108
3246.153846153846,-101
3253.846153846154,-98
3261.5384615384614,-94
3269.2307692307695,-87
3276.923076923077,-87
3284.6153846153848,-87
3292.3076923076924,-82
3300.0,-80
3307.6923076923076,-82
3315.3846153846157,-77
3323.0769230769233,-73
3330.769230769231,-68
3338.4615384615386,-63
3346.153846153846,-58
3353.846153846154,-56
3361.5384615384614,-54
3369.2307692307695,-49
3376.923076923077,-47
3384.6153846153848,-44
3392.3076923076924,-42
3400.0,-35
3407.6923076923076,-23
3415.3846153846157,-4
3423.0769230769233,16
3430.769230769231,16
3438.4615384615386,9
3446.153846153846,11
3453.846153846154,4
3461.5384615384614,-9
3469.2307692307695,-14
3476.923076923077,-11
3484.6153846153848,-11
3492.3076923076924,-9
3500.0,-4
3507.6923076923076,-9
3515.3846153846157,-14
3523.0769230769233,-11
3530.769230769231,-11
3538.4615384615386,-14
3546.153846153846,-16
3553.846153846154,-14
3561.5384615384614,-7
3569.2307692307695,-7
3576.923076923077,-56
3584.6153846153848,-190
3592.3076923076924,-285
3600.0,-87
3607.6923076923076,501
3615.3846153846157,1493
3623.0769230769233,2410
3630.769230769231,2146
3638.4615384615386,749
3646.153846153846,-164
3653.846153846154,-103
3661.5384615384614,-44
3669.2307692307695,-212
3676.923076923077,-214
3684.6153846153848,-167
3692.3076923076924,-197
3700.0,-197
3707.6923076923076,-167
3715.3846153846157,-167
3723.0769230769233,-167
3730.769230769231,-148
3738.4615384615386,-134
3746.153846153846,-131
3753.846153846154,-124
3761.5384615384614,-110
3769.2307692307695,-106
3776.923076923077,-96
3784.6153846153848,-82
3792.3076923076924,-65
3800.0,-51
3807.6923076923076,-32
3815.3846153846157,-7
3823.0769230769233,28
3830.769230769231,63
3838.4615384615386,98
3846.153846153846,131
3853.846153846154,164
3861.5384615384614,193
3869.2307692307695,204
3876.923076923077,193
3884.6153846153848,150
3892.3076923076924,82
3900.0,9
3907.6923076923076,-49
3915.3846153846157,-98
3923.0769230769233,-136
3930.769230769231,-160
3938.4615384615386,-171
3946.153846153846,-181
3953.846153846154,-183
3961.5384615384614,-176
3969.2307692307695,-169
3976.923076923077,-164
3984.6153846153848,-160
3992.3076923076924,-155
4000.0,-155
4007.6923076923076,-146
4015.3846153846157,-134
4023.0769230769233,-129
4030.769230769231,-122
4038.4615384615386,-115
4046.153846153846,-115
4053.846153846154,-113
4061.5384615384614,-103
4069.2307692307695,-98
4076.923076923077,-94
4084.6153846153848,-89
4092.3076923076924,-91
4100.0,-94
4107.692307692308,-87
4115.384615384615,-89
4123.076923076923,-89
4130.7692307692305,-84
4138.461538461539,-84
4146.153846153847,-84
4153.846153846154,-80
4161.538461538462,-73
4169.2307692307695,-68
4176.923076923077,-63
4184.615384615385,-61
4192.307692307692,-56
4200.0,-51
4207.692307692308,-42
4215.384615384615,-44
4223.076923076923,-56
4230.7692307692305,-61
4238.461538461539,-44
4246.153846153847,-18
4253.846153846154,2
4261.538461538462,18
4269.2307692307695,21
4276.923076923077,9
4284.615384615385,9
4292.307692307692,7
4300.0,-7
4307.692307692308,-14
4315.384615384615,-14
4323.076923076923,-9
4330.7692307692305,-7
4338.461538461539,-9
4346.153846153847,-11
4353.846153846154,-11
4361.538461538462,-16
4369.2307692307695,-16
4376.923076923077,-14
4384.615384615385,-11
4392.307692307692,-4
4400.0,-2
4407.692307692308,-2
4415.384615384615,-11
4423.076923076923,-70
4430.7692307692305,-195
4438.461538461539,-221
4446.153846153847,35
4453.846153846154,626
4461.538461538462,1543
4469.2307692307695,2191
4476.923076923077,1635
4484.615384615385,358
4492.307692307692,-204
4500.0,-63
4507.692307692308,-77
4515.384615384615,-202
4523.076923076923,-167
4530.7692307692305,-143
4538.461538461539,-183
4546.153846153847,-171
4553.846153846154,-143
4561.538461538462,-136
4569.2307692307695,-127
4576.923076923077,-117
4584.615384615385,-115
4592.307692307692,-103
4600.0,-82
4607.692307692308,-68
4615.384615384615,-58
4623.076923076923,-44
4630.7692307692305,-30
4638.461538461539,-16
4646.153846153847,4
4653.846153846154,25
4661.538461538462,51
4669.2307692307695,77
4676.923076923077,101
4684.615384615385,131
4692.307692307692,164
4700.0,190
4707.692307692308,207
4715.384615384615,212
4723.076923076923,200
4730.7692307692305,157
4738.461538461539,91
4746.153846153847,23
4753.846153846154,-37
4761.538461538462,-84
4769.2307692307695,-113
4776.923076923077,-134
4784.615384615385,-146
4792.307692307692,-153
4800.0,-155
4807.692307692308,-155
4815.384615384615,-150
4823.076923076923,-141
4830.7692307692305,-129
4838.461538461539,-122
4846.153846153847,-115
4853.846153846154,-106
4861.538461538462,-103
4869.2307692307695,-98
4876.923076923077,-89
4884.615384615385,-80
4892.307692307692,-80
4900.0,-80
4907.692307692308,-77
4915.384615384615,-70
4923.076923076923,-65
4930.7692307692305,-63
4938.461538461539,-61
4946.153846153847,-61
4953.846153846154,-65
4961.538461538462,-61
4969.2307692307695,-56
4976.923076923077,-61
4984.615384615385,-58
4992.307692307692,-47
5000.0,-42
5007.692307692308,-49
5015.384615384615,-44
5023.076923076923,-35
5030.7692307692305,-32
5038.461538461539,-23
5046.153846153847,-14
5053.846153846154,-21
5061.538461538462,-28
5069.2307692307695,-28
5076.923076923077,-21
5084.615384615385,-7
5092.307692307692,-4
5100.0,-11
5107.692307692308,-7
5115.384615384615,0
5123.076923076923,-2
5130.7692307692305,-4
5138.461538461539,4
5146.153846153847,7
5153.846153846154,-2
5161.538461538462,2
5169.2307692307695,14
5176.923076923077,14
5184.615384615385,7
5192.307692307692,-4
5200.0,-4
5207.692307692308,14
5215.384615384615,44
5223.076923076923,65
5230.7692307692305,58
5238.461538461539,42
5246.153846153847,44
5253.846153846154,49
5261.538461538462,28
5269.2307692307695,9
5276.923076923077,21
5284.615384615385,37
5292.307692307692,35
5300.0,25
5307.692307692308,21
5315.384615384615,18
5323.076923076923,28
5330.7692307692305,30
5338.461538461539,16
5346.153846153847,14
5353.846153846154,23
5361.538461538462,30
5369.2307692307695,30
5376.923076923077,28
5384.615384615385,14
5392.307692307692,-58
5400.0,-202
5407.692307692308,-212
5415.384615384615,136
5423.076923076923,871
5430.7692307692305,1894
5438.461538461539,2452
5446.153846153847,1627
5453.846153846154,226
5461.538461538462,-219
5469.2307692307695,9
5476.923076923077,-51
5484.615384615385,-204
5492.307692307692,-143
5500.0,-122
5507.692307692308,-160
5515.384615384615,-136
5523.076923076923,-113
5530.7692307692305,-124
5538.461538461539,-110
5546.153846153847,-84
5553.846153846154,-84
5561.538461538462,-75
5569.2307692307695,-49
5576.923076923077,-40
5584.615384615385,-40
5592.307692307692,-28
5600.0,-9
5607.692307692308,2
5615.384615384615,18
5623.076923076923,54
5630.7692307692305,82
5638.461538461539,101
5646.153846153847,139
5653.846153846154,181
5661.538461538462,216
5669.2307692307695,245
5676.923076923077,266
5684.615384615385,282
5692.307692307692,278
5700.0,240
5707.692307692308,176
5715.384615384615,98
5723.076923076923,25
5730.7692307692305,-30
5738.461538461539,-73
5746.153846153847,-108
5753.846153846154,-127
5761.538461538462,-131
5769.2307692307695,-134
5776.923076923077,-129
5784.615384615385,-122
5792.307692307692,-122
5800.0,-117
5807.692307692308,-103
5815.384615384615,-96
5823.076923076923,-94
5830.7692307692305,-89
5838.461538461539,-87
5846.153846153847,-84
5853.846153846154,-77
5861.538461538462,-70
5869.2307692307695,-68
5876.923076923077,-68
5884.615384615385,-70
5892.307692307692,-70
5900.0,-68
5907.692307692308,-68
5915.384615384615,-70
5923.076923076923,-65
5930.7692307692305,-63
5938.461538461539,-68
5946.153846153847,-65
5953.846153846154,-56
5961.538461538462,-51
5969.2307692307695,-58
5976.923076923077,-61
5984.615384615385,-49
5992.307692307692,-37
6000.0,-42
6007.692307692308,-47
6015.384615384615,-37
6023.076923076923,-35
6030.7692307692305,-42
6038.461538461539,-44
6046.153846153847,-37
6053.846153846154,-30
6061.538461538462,-16
6069.2307692307695,7
6076.923076923077,21
6084.615384615385,14
6092.307692307692,11
6100.0,16
6107.692307692308,7
6115.384615384615,-9
6123.076923076923,-14
6130.7692307692305,-11
6138.461538461539,-11
6146.153846153847,-9
6153.846153846154,-9
6161.538461538462,-11
6169.2307692307695,-16
6176.923076923077,-16
6184.615384615385,-16
6192.307692307692,-16
6200.0,-21
6207.692307692308,-23
6215.384615384615,-18
6223.076923076923,-14
6230.7692307692305,-21
6238.461538461539,-70
6246.153846153847,-207
6253.846153846154,-292
6261.538461538462,-77
6269.2307692307695,520
6276.923076923077,1498
6284.615384615385,2377
6292.307692307692,2059
6300.0,643
6307.692307692308,-221
6315.384615384615,-91
6323.076923076923,-30
6330.7692307692305,-212
6338.461538461539,-202
6346.153846153847,-153
6353.846153846154,-193
6361.538461538462,-190
6369.2307692307695,-153
6376.923076923077,-153
6384.615384615385,-157
6392.307692307692,-146
6400.0,-136
6407.692307692308,-129
6415.384615384615,-122
6423.076923076923,-117
6430.7692307692305,-108
6438.461538461539,-91
6446.153846153847,-80
6453.846153846154,-65
6461.538461538462,-51
6469.2307692307695,-35
6476.923076923077,-16
6484.615384615385,9
6492.307692307692,42
6500.0,84
6507.692307692308,122
6515.384615384615,146
6523.076923076923,160
6530.7692307692305,176
6538.461538461539,169
6546.153846153847,124
6553.846153846154,58
6561.538461538462,-11
6569.2307692307695,-68
6576.923076923077,-115
6584.615384615385,-150
6592.307692307692,-169
6600.0,-183
6607.692307692308,-190
6615.384615384615,-190
6623.076923076923,-186
6630.769230769231,-181
6638.461538461539,-171
6646.153846153847,-160
6653.846153846154,-150
6661.538461538462,-148
6669.2307692307695,-146
6676.923076923077,-136
6684.615384615385,-124
6692.307692307692,-120
6700.0,-117
6707.692307692308,-113
6715.384615384615,-106
6723.076923076923,-103
6730.769230769231,-96
6738.461538461539,-89
6746.153846153847,-87
6753.846153846154,-89
6761.538461538462,-84
6769.2307692307695,-82
6776.923076923077,-80
6784.615384615385,-77
6792.307692307692,-80
6800.0,-77
6807.692307692308,-65
6815.384615384615,-58
6823.076923076923,-56
6830.769230769231,-54
6838.461538461539,-49
6846.153846153847,-44
6853.846153846154,-44
6861.538461538462,-44
6869.2307692307695,-37
6876.923076923077,-30
6884.615384615385,-30
6892.307692307692,-25
6900.0,-21
6907.692307692308,-18
6915.384615384615,-16
6923.076923076923,-14
6930.769230769231,-11
6938.461538461539,-9
6946.153846153847,-9
6953.846153846154,-9
6961.538461538462,-9
6969.2307692307695,0
6976.923076923077,21
6984.615384615385,49
6992.307692307692,58
7000.0,47
7007.692307692308,40
7015.384615384615,42
7023.076923076923,30
7030.769230769231,16
7038.461538461539,14
7046.153846153847,14
7053.846153846154,14
7061.538461538462,14
7069.2307692307695,4
7076.923076923077,0
7084.615384615385,2
7092.307692307692,2
7100.0,-2
7107.692307692308,0
7115.384615384615,2
7123.076923076923,2
7130.769230769231,0
7138.461538461539,-2
7146.153846153847,-2
7153.846153846154,-23
7161.538461538462,-117
7169.2307692307695,-223
7176.923076923077,-134
7184.615384615385,275
7192.307692307692,1041
7200.0,1967
7207.692307692308,2134
7215.384615384615,1053
7223.076923076923,-42
7230.769230769231,-167
7238.461538461539,-25
7246.153846153847,-150
7253.846153846154,-204
7261.538461538462,-150
7269.2307692307695,-164
7276.923076923077,-179
7284.615384615385,-148
7292.307692307692,-141
7300.0,-143
7307.692307692308,-124
7315.384615384615,-113
7323.076923076923,-108
7330.769230769231,-96
7338.461538461539,-84
7346.153846153847,-75
7353.846153846154,-65
7361.538461538462,-54
7369.2307692307695,-44
7376.923076923077,-32
7384.615384615385,-16
7392.307692307692,7
7400.0,32
7407.692307692308,61
7415.384615384615,89
7423.076923076923,113
7430.769230769231,141
7438.461538461539,169
7446.153846153847,186
7453.846153846154,186
7461.538461538462,167
7469.2307692307695,117
7476.923076923077,51
7484.615384615385,-11
7492.307692307692,-65
7500.0,-110
7507.692307692308,-143
7515.384615384615,-160
7523.076923076923,-169
7530.769230769231,-171
7538.461538461539,-169
7546.153846153847,-164
7553.846153846154,-160
7561.538461538462,-150
7569.2307692307695,-143
7576.923076923077,-139
7584.615384615385,-127
7592.307692307692,-120
7600.0,-115
7607.692307692308,-106
7615.384615384615,-96
7623.076923076923,-94
7630.769230769231,-89
7638.461538461539,-84
7646.153846153847,-82
7653.846153846154,-80
7661.538461538462,-77
7669.2307692307695,-75
7676.923076923077,-73
7684.615384615385,-73
7692.307692307692,-73
7700.0,-70
7707.692307692308,-70
7715.384615384615,-68
7723.076923076923,-68
7730.769230769231,-68
7738.461538461539,-65
7746.153846153847,-63
7753.846153846154,-61
7761.538461538462,-58
7769.2307692307695,-56
7776.923076923077,-56
7784.615384615385,-54
7792.307692307692,-51
7800.0,-49
7807.692307692308,-49
7815.384615384615,-47
7823.076923076923,-44
7830.769230769231,-40
7838.461538461539,-32
7846.153846153847,-32
7853.846153846154,-32
7861.538461538462,-28
7869.2307692307695,-21
7876.923076923077,-16
7884.615384615385,-14
7892.307692307692,-16
7900.0,-14
7907.692307692308,-9
7915.384615384615,-11
7923.076923076923,-11
7930.769230769231,-9
7938.461538461539,-4
7946.153846153847,0
7953.846153846154,0
7961.538461538462,-2
7969.2307692307695,-4
7976.923076923077,-7
7984.615384615385,-4
7992.307692307692,14
8000.0,37
8007.692307692308,54
8015.384615384615,58
8023.076923076923,51
8030.769230769231,40
8038.461538461539,35
8046.153846153847,23
8053.846153846154,14
8061.538461538462,18
8069.2307692307695,18
8076.923076923077,9
8084.615384615385,7
8092.307692307692,4
8100.0,2
8107.692307692308,4
8115.384615384615,4
8123.076923076923,2
8130.769230769231,7
8138.461538461539,4
8146.153846153847,-2
8153.846153846154,2
8161.538461538462,-2
8169.2307692307695,-70
8176.923076923077,-207
8184.615384615385,-233
8192.307692307693,51
8200.0,704
8207.692307692309,1703
8215.384615384615,2377
8223.076923076924,1750
8230.76923076923,381
8238.461538461539,-204
8246.153846153846,-44
8253.846153846154,-70
8261.538461538461,-214
8269.23076923077,-176
8276.923076923078,-153
8284.615384615385,-188
8292.307692307693,-171
8300.0,-146
8307.692307692309,-153
8315.384615384615,-141
8323.076923076924,-117
8330.76923076923,-110
8338.461538461539,-101
8346.153846153846,-87
8353.846153846154,-82
8361.538461538461,-77
8369.23076923077,-65
8376.923076923078,-54
8384.615384615385,-37
8392.307692307693,-16
8400.0,2
8407.692307692309,28
8415.384615384615,54
8423.076923076924,80
8430.76923076923,110
8438.461538461539,141
8446.153846153846,176
8453.846153846154,212
8461.538461538461,228
8469.23076923077,219
8476.923076923078,190
8484.615384615385,139
8492.307692307693,65
8500.0,-7
8507.692307692309,-63
8515.384615384615,-101
8523.076923076924,-129
8530.76923076923,-148
8538.461538461539,-155
8546.153846153846,-150
8553.846153846154,-150
8561.538461538461,-153
8569.23076923077,-146
8576.923076923078,-131
8584.615384615385,-127
8592.307692307693,-124
8600.0,-113
8607.692307692309,-96
8615.384615384615,-89
8623.076923076924,-87
8630.76923076923,-84
8638.461538461539,-82
8646.153846153846,-77
8653.846153846154,-73
8661.538461538461,-70
8669.23076923077,-63
8676.923076923078,-58
8684.615384615385,-56
8692.307692307693,-58
8700.0,-56
8707.692307692309,-56
8715.384615384615,-58
8723.076923076924,-51
8730.76923076923,-47
8738.461538461539,-51
8746.153846153846,-49
8753.846153846154,-40
8761.538461538461,-37
8769.23076923077,-40
8776.923076923078,-40
8784.615384615385,-32
8792.307692307693,-25
8800.0,-28
8807.692307692309,-32
8815.384615384615,-30
8823.076923076924,-23
8830.76923076923,-25
8838.461538461539,-35
8846.153846153846,-32
8853.846153846154,-18
8861.538461538461,7
8869.23076923077,35
8876.923076923078,42
8884.615384615385,25
8892.307692307693,18
8900.0,18
8907.692307692309,7
8915.384615384615,-4
8923.076923076924,0
8930.76923076923,11
8938.461538461539,7
8946.153846153846,2
8953.846153846154,4
8961.538461538461,2
8969.23076923077,-4
8976.923076923078,-2
8984.615384615385,-4
8992.307692307693,-7
9000.0,-4
9007.692307692309,0
9015.384615384615,-4
9023.076923076924,-32
9030.76923076923,-143
9038.461538461539,-287
9046.153846153846,-188
9053.846153846154,318
9061.538461538461,1218
9069.23076923077,2221
9076.923076923078,2315
9084.615384615385,1046
9092.307692307693,-122
9100.0,-169
9107.692307692309,-9
9115.384615384615,-179
9123.076923076924,-233
9130.76923076923,-155
9138.461538461539,-181
9146.153846153846,-202
9153.846153846154,-167
9161.538461538461,-155
9169.23076923077,-157
9176.923076923078,-141
9184.615384615385,-122
9192.307692307693,-115
9200.0,-103
9207.692307692309,-89
9215.384615384615,-77
9223.076923076924,-68
9230.76923076923,-54
9238.461538461539,-37
9246.153846153846,-18
9253.846153846154,2
9261.538461538461,28
9269.23076923077,58
9276.923076923078,94
9284.615384615385,129
9292.307692307693,162
9300.0,195
9307.692307692309,226
9315.384615384615,245
9323.076923076924,245
9330.76923076923,214
9338.461538461539,153
9346.153846153846,77
9353.846153846154,7
9361.538461538461,-51
9369.23076923077,-96
9376.923076923078,-129
9384.615384615385,-148
9392.307692307693,-160
9400.0,-164
9407.692307692309,-162
9415.384615384615,-155
9423.076923076924,-148
9430.76923076923,-143
9438.461538461539,-139
9446.153846153846,-131
9453.846153846154,-124
9461.538461538461,-117
9469.23076923077,-113
9476.923076923078,-110
9484.615384615385,-106
9492.307692307693,-101
9500.0,-94
9507.692307692309,-89
9515.384615384615,-84
9523.076923076924,-82
9530.76923076923,-80
9538.461538461539,-77
9546.153846153846,-75
9553.846153846154,-73
9561.538461538461,-70
9569.23076923077,-65
9576.923076923078,-68
9584.615384615385,-68
9592.307692307693,-63
9600.0,-56
9607.692307692309,-54
9615.384615384615,-49
9623.076923076924,-44
9630.76923076923,-44
9638.461538461539,-42
9646.153846153846,-35
9653.846153846154,-32
9661.538461538461,-32
9669.23076923077,-32
9676.923076923078,-37
9684.615384615385,-40
9692.307692307693,-40
9700.0,-28
9707.692307692309,-4
9715.384615384615,16
9723.076923076924,21
9730.76923076923,11
9738.461538461539,11
9746.153846153846,7
9753.846153846154,-9
9761.538461538461,-21
9769.23076923077,-18
9776.923076923078,-16
9784.615384615385,-16
9792.307692307693,-16
9800.0,-18
9807.692307692309,-23
9815.384615384615,-23
9823.076923076924,-21
9830.76923076923,-21
9838.461538461539,-18
9846.153846153846,-23
9853.846153846154,-23
9861.538461538461,-18
9869.23076923077,-32
9876.923076923078,-115
9884.615384615385,-247
9892.307692307693,-230
9900.0,117
9907.692307692309,848
9915.384615384615,1865
9923.076923076924,2351
9930.76923076923,1477
9938.461538461539,169
9946.153846153846,-207
9953.846153846154,-47
9961.538461538461,-129
9969.23076923077,-230
9976.923076923078,-179
9984.615384615385,-179
9992.307692307693,-207
10000.0,-181
10007.692307692309,-160
10015.384615384615,-162
10023.076923076924,-153
10030.76923076923,-139
10038.461538461539,-131
10046.153846153846,-117
10053.846153846154,-106
10061.538461538461,-98
10069.23076923077,-84
10076.923076923078,-73
10084.615384615385,-61
10092.307692307693,-44
10100.0,-30
10107.692307692309,-7
10115.384615384615,23
10123.076923076924,51
10130.76923076923,82
10138.461538461539,117
10146.153846153846,148
10153.846153846154,171
10161.538461538461,193
10169.23076923077,197
10176.923076923078,174
10184.615384615385,124
10192.307692307693,56
10200.0,-9
10207.692307692309,-65
10215.384615384615,-113
10223.076923076924,-148
10230.76923076923,-169
10238.461538461539,-179
10246.153846153846,-183
10253.846153846154,-186
10261.538461538461,-183
10269.23076923077,-174
10276.923076923078,-169
10284.615384615385,-164
10292.307692307693,-157
10300.0,-150
10307.692307692309,-146
10315.384615384615,-141
10323.076923076924,-134
10330.76923076923,-124
10338.461538461539,-117
10346.153846153846,-113
10353.846153846154,-108
10361.538461538461,-103
10369.23076923077,-96
10376.923076923078,-94
10384.615384615385,-91
10392.307692307693,-89
10400.0,-87
10407.692307692309,-87
10415.384615384615,-84
10423.076923076924,-75
10430.76923076923,-73
10438.461538461539,-75
10446.153846153846,-70
10453.846153846154,-63
10461.538461538461,-63
10469.23076923077,-65
10476.923076923078,-63
10484.615384615385,-56
10492.307692307693,-56
10500.0,-56
10507.692307692309,-54
10515.384615384615,-51
10523.076923076924,-51
10530.76923076923,-37
10538.461538461539,-11
10546.153846153846,9
10553.846153846154,11
10561.538461538461,4
10569.23076923077,7
10576.923076923078,0
10584.615384615385,-11
10592.307692307693,-14
10600.0,-14
10607.692307692309,-14
10615.384615384615,-16
10623.076923076924,-18
10630.76923076923,-18
10638.461538461539,-11
10646.153846153846,-11
10653.846153846154,-18
10661.538461538461,-18
10669.23076923077,-9
10676.923076923078,-7
10684.615384615385,-9
10692.307692307693,-11
10700.0,-16
10707.692307692309,-51
10715.384615384615,-160
10723.076923076924,-259
10730.76923076923,-127
10738.461538461539,379
10746.153846153846,1291
10753.846153846154,2235
10761.538461538461,2158
10769.23076923077,862
10776.923076923078,-146
10784.615384615385,-141
10792.307692307693,-40
10800.0,-202
10807.692307692309,-216
10815.384615384615,-148
10823.076923076924,-176
10830.76923076923,-190
10838.461538461539,-153
10846.153846153846,-150
10853.846153846154,-157
10861.538461538461,-139
10869.23076923077,-120
10876.923076923078,-110
10884.615384615385,-101
10892.307692307693,-89
10900.0,-77
10907.692307692309,-58
10915.384615384615,-44
10923.076923076924,-32
10930.76923076923,-14
10938.461538461539,7
10946.153846153846,32
10953.846153846154,65
10961.538461538461,98
10969.23076923077,127
10976.923076923078,160
10984.615384615385,200
10992.307692307693,226
11000.0,235
11007.692307692309,240
11015.384615384615,214
11023.076923076924,143
11030.76923076923,61
11038.461538461539,-7
11046.153846153846,-65
11053.846153846154,-108
11061.538461538461,-131
11069.23076923077,-148
11076.923076923078,-155
11084.615384615385,-155
11092.307692307693,-157
11100.0,-153
11107.692307692309,-141
11115.384615384615,-134
11123.076923076924,-131
11130.76923076923,-127
11138.461538461539,-117
11146.153846153846,-108
11153.846153846154,-101
11161.538461538461,-94
11169.23076923077,-84
11176.923076923078,-80
11184.615384615385,-77
11192.307692307693,-75
11200.0,-70
11207.692307692309,-65
11215.384615384615,-61
11223.076923076924,-56
11230.76923076923,-56
11238.461538461539,-58
11246.153846153846,-56
11253.846153846154,-51
11261.538461538461,-49
11269.23076923077,-42
11276.923076923078,-42
11284.615384615385,-54
11292.307692307693,-47
11300.0,-35
11307.692307692309,-37
11315.384615384615,-44
11323.076923076924,-42
11330.76923076923,-37
11338.461538461539,-25
11346.153846153846,0
11353.846153846154,28
11361.538461538461,28
11369.23076923077,11
11376.923076923078,9
11384.615384615385,14
11392.307692307693,7
11400.0,-4
11407.692307692309,2
11415.384615384615,9
11423.076923076924,-2
11430.76923076923,-9
11438.461538461539,4
11446.153846153846,9
11453.846153846154,-2
11461.538461538461,-2
11469.23076923077,4
11476.923076923078,-4
11484.615384615385,-11
11492.307692307693,0
11500.0,14
11507.692307692309,0
11515.384615384615,-68
11523.076923076924,-207
11530.76923076923,-278
11538.461538461539,-14
11546.153846153846,671
11553.846153846154,1715
11561.538461538461,2497
11569.23076923077,1927
11576.923076923078,424
11584.615384615385,-259
11592.307692307693,-32
11600.0,-35
11607.692307692309,-226
11615.384615384615,-190
11623.076923076924,-146
11630.76923076923,-188
11638.461538461539,-174
11646.153846153846,-146
11653.846153846154,-150
11661.538461538461,-141
11669.23076923077,-120
11676.923076923078,-108
11684.615384615385,-98
11692.307692307693,-94
11700.0,-82
11707.692307692309,-61
11715.384615384615,-49
11723.076923076924,-42
11730.76923076923,-18
11738.461538461539,-2
11746.153846153846,16
11753.846153846154,49
11761.538461538461,84
11769.23076923077,113
11776.923076923078,148
11784.615384615385,181
11792.307692307693,209
11800.0,240
11807.692307692309,252
11815.384615384615,226
11823.076923076924,169
11830.76923076923,98
11838.461538461539,23
11846.153846153846,-42
11853.846153846154,-94
11861.538461538461,-129
11869.23076923077,-155
11876.923076923078,-179
11884.615384615385,-183
11892.307692307693,-174
11900.0,-169
11907.692307692309,-167
11915.384615384615,-157
11923.076923076924,-153
11930.76923076923,-146
11938.461538461539,-136
11946.153846153846,-127
11953.846153846154,-120
11961.538461538461,-115
11969.23076923077,-110
11976.923076923078,-103
11984.615384615385,-96
11992.307692307693,-91
12000.0,-87
12007.692307692309,-84
12015.384615384615,-80
12023.076923076924,-80
12030.76923076923,-80
12038.461538461539,-75
12046.153846153846,-70
12053.846153846154,-68
12061.538461538461,-65
12069.23076923077,-61
12076.923076923078,-58
12084.615384615385,-54
12092.307692307693,-47
12100.0,-44
12107.692307692309,-44
12115.384615384615,-42
12123.076923076924,-47
12130.76923076923,-49
12138.461538461539,-44
12146.153846153846,-35
12153.846153846154,-16
12161.538461538461,11
12169.23076923077,25
12176.923076923078,14
12184.615384615385,11
12192.307692307693,14
12200.0,0
12207.692307692309,-14
12215.384615384615,-14
12223.076923076924,-7
12230.76923076923,-9
12238.461538461539,-11
12246.153846153846,-9
12253.846153846154,-9
12261.538461538461,-9
12269.23076923077,-4
12276.923076923078,-2
12284.615384615385,-4
12292.307692307693,-4
12300.0,-2
12307.692307692309,-2
12315.384615384615,-4
12323.076923076924,-30
12330.76923076923,-136
12338.461538461539,-266
12346.153846153846,-179
12353.846153846154,280
12361.538461538461,1149
12369.23076923077,2202
12376.923076923078,2417
12384.615384615385,1239
12392.307692307693,11
12400.0,-155
12407.692307692309,-18
12415.384615384615,-169
12423.076923076924,-235
12430.76923076923,-167
12438.461538461539,-181
12446.153846153846,-204
12453.846153846154,-171
12461.538461538461,-157
12469.23076923077,-160
12476.923076923078,-146
12484.615384615385,-134
12492.307692307693,-127
12500.0,-115
12507.692307692309,-103
12515.384615384615,-94
12523.076923076924,-80
12530.76923076923,-65
12538.461538461539,-49
12546.153846153846,-32
12553.846153846154,-14
12561.538461538461,11
12569.23076923077,40
12576.923076923078,70
12584.615384615385,106
12592.307692307693,141
12600.0,174
12607.692307692309,202
12615.384615384615,221
12623.076923076924,216
12630.76923076923,181
12638.461538461539,113
12646.153846153846,40
12653.846153846154,-23
12661.538461538461,-75
12669.23076923077,-120
12676.923076923078,-148
12684.615384615385,-164
12692.307692307693,-174
12700.0,-176
12707.692307692309,-171
12715.384615384615,-169
12723.076923076924,-164
12730.76923076923,-157
12738.461538461539,-150
12746.153846153846,-143
12753.846153846154,-139
12761.538461538461,-131
12769.23076923077,-124
12776.923076923078,-117
12784.615384615385,-108
12792.307692307693,-103
12800.0,-98
12807.692307692309,-94
12815.384615384615,-91
12823.076923076924,-89
12830.76923076923,-82
12838.461538461539,-77
12846.153846153846,-77
12853.846153846154,-77
12861.538461538461,-75
12869.23076923077,-73
12876.923076923078,-70
12884.615384615385,-68
12892.307692307693,-68
12900.0,-63
12907.692307692309,-61
12915.384615384615,-58
12923.076923076924,-56
12930.76923076923,-49
12938.461538461539,-47
12946.153846153846,-47
12953.846153846154,-49
12961.538461538461,-49
12969.23076923077,-44
12976.923076923078,-47
12984.615384615385,-44
12992.307692307693,-35
13000.0,-14
13007.692307692309,11
13015.384615384615,23
13023.076923076924,16
13030.76923076923,11
13038.461538461539,14
13046.153846153846,4
13053.846153846154,-9
13061.538461538461,-9
13069.23076923077,-2
13076.923076923078,-2
13084.615384615385,-4
13092.307692307693,-4
13100.0,-4
13107.692307692309,-2
13115.384615384615,-2
13123.076923076924,-4
13130.76923076923,-4
13138.461538461539,-7
13146.153846153846,-4
13153.846153846154,0
13161.538461538463,-4
13169.23076923077,-28
13176.923076923078,-124
13184.615384615385,-252
13192.307692307693,-181
13200.0,240
13207.692307692309,1062
13215.384615384615,2099
13223.076923076924,2377
13230.76923076923,1267
13238.461538461539,25
13246.153846153846,-176
13253.846153846154,-28
13261.538461538463,-160
13269.23076923077,-233
13276.923076923078,-171
13284.615384615385,-183
13292.307692307693,-207
13300.0,-176
13307.692307692309,-164
13315.384615384615,-169
13323.076923076924,-153
13330.76923076923,-134
13338.461538461539,-129
13346.153846153846,-120
13353.846153846154,-108
13361.538461538463,-98
13369.23076923077,-87
13376.923076923078,-68
13384.615384615385,-54
13392.307692307693,-35
13400.0,-16
13407.692307692309,7
13415.384615384615,37
13423.076923076924,73
13430.76923076923,110
13438.461538461539,143
13446.153846153846,176
13453.846153846154,204
13461.538461538463,223
13469.23076923077,221
13476.923076923078,188
13484.615384615385,124
13492.307692307693,51
13500.0,-16
13507.692307692309,-70
13515.384615384615,-115
13523.076923076924,-146
13530.76923076923,-162
13538.461538461539,-179
13546.153846153846,-188
13553.846153846154,-179
13561.538461538463,-169
13569.23076923077,-167
13576.923076923078,-160
13584.615384615385,-153
13592.307692307693,-148
13600.0,-139
13607.692307692309,-127
13615.384615384615,-122
13623.076923076924,-115
13630.76923076923,-110
13638.461538461539,-110
13646.153846153846,-103
13653.846153846154,-94
13661.538461538463,-89
13669.23076923077,-89
13676.923076923078,-84
13684.615384615385,-82
13692.307692307693,-77
13700.0,-75
13707.692307692309,-73
13715.384615384615,-73
13723.076923076924,-73
13730.76923076923,-70
13738.461538461539,-65
13746.153846153846,-63
13753.846153846154,-58
13761.538461538463,-56
13769.23076923077,-54
13776.923076923078,-51
13784.615384615385,-47
13792.307692307693,-40
13800.0,-40
13807.692307692309,-37
13815.384615384615,-37
13823.076923076924,-32
13830.76923076923,-25
13838.461538461539,-23
13846.153846153846,-21
13853.846153846154,-18
13861.538461538463,-16
13869.23076923077,-14
13876.923076923078,-9
13884.615384615385,-11
13892.307692307693,-16
13900.0,-16
13907.692307692309,-11
13915.384615384615,7
13923.076923076924,32
13930.76923076923,51
13938.461538461539,47
13946.153846153846,37
13953.846153846154,35
13961.538461538463,32
13969.23076923077,18
13976.923076923078,9
13984.615384615385,14
13992.307692307693,18
14000.0,11
14007.692307692309,9
14015.384615384615,11
14023.076923076924,7
14030.76923076923,4
14038.461538461539,4
14046.153846153846,4
14053.846153846154,2
14061.538461538463,4
14069.23076923077,4
14076.923076923078,2
14084.615384615385,-7
14092.307692307693,-61
14100.0,-186
14107.692307692309,-240
14115.384615384615,-2
14123.076923076924,605
14130.76923076923,1587
14138.461538461539,2381
14146.153846153846,1920
14153.846153846154,530
14161.538461538463,-186
14169.23076923077,-65
14176.923076923078,-70
14184.615384615385,-216
14192.307692307693,-186
14200.0,-155
14207.692307692309,-190
14215.384615384615,-181
14223.076923076924,-153
14230.76923076923,-150
14238.461538461539,-143
14246.153846153846,-127
14253.846153846154,-117
14261.538461538463,-110
14269.23076923077,-96
14276.923076923078,-87
14284.615384615385,-77
14292.307692307693,-63
14300.0,-49
14307.692307692309,-35
14315.384615384615,-18
14323.076923076924,4
14330.76923076923,25
14338.461538461539,54
14346.153846153846,87
14353.846153846154,117
14361.538461538463,148
14369.23076923077,176
14376.923076923078,200
14384.615384615385,212
14392.307692307693,202
14400.0,160
14407.692307692309,96
14415.384615384615,28
14423.076923076924,-35
14430.76923076923,-82
14438.461538461539,-120
14446.153846153846,-146
14453.846153846154,-157
14461.538461538463,-162
14469.23076923077,-164
14476.923076923078,-162
14484.615384615385,-155
14492.307692307693,-148
14500.0,-139
14507.692307692309,-134
14515.384615384615,-127
14523.076923076924,-117
14530.76923076923,-110
14538.461538461539,-103
14546.153846153846,-96
14553.846153846154,-89
14561.538461538463,-87
14569.23076923077,-82
14576.923076923078,-77
14584.615384615385,-75
14592.307692307693,-70
14600.0,-68
14607.692307692309,-68
14615.384615384615,-65
14623.076923076924,-65
14630.76923076923,-65
14638.461538461539,-65
14646.153846153846,-68
14653.846153846154,-65
14661.538461538463,-63
14669.23076923077,-65
14676.923076923078,-61
14684.615384615385,-54
14692.307692307693,-49
14700.0,-47
14707.692307692309,-42
14715.384615384615,-40
14723.076923076924,-37
14730.76923076923,-32
14738.461538461539,-28
14746.153846153846,-25
14753.846153846154,-23
14761.538461538463,-21
14769.23076923077,-16
14776.923076923078,-14
14784.615384615385,-9
14792.307692307693,-7
14800.0,-4
14807.692307692309,2
14815.384615384615,2
14823.076923076924,2
14830.76923076923,7
14838.461538461539,9
14846.153846153846,7
14853.846153846154,4
14861.538461538463,7
14869.23076923077,16
14876.923076923078,30
14884.615384615385,51
14892.307692307693,68
14900.0,58
14907.692307692309,47
14915.384615384615,49
14923.076923076924,44
14930.76923076923,23
14938.461538461539,14
14946.153846153846,18
14953.846153846154,21
14961.538461538463,18
14969.23076923077,14
14976.923076923078,11
14984.615384615385,9
14992.307692307693,9
15000.0,7
15007.692307692309,4
15015.384615384615,4
15023.076923076924,2
15030.76923076923,2
15038.461538461539,4
15046.153846153846,4
15053.846153846154,4
15061.538461538463,0
15069.23076923077,-30
15076.923076923078,-134
15084.615384615385,-237
15092.307692307693,-120
15100.0,341
15107.692307692309,1189
15115.384615384615,2132
15123.076923076924,2158
15130.76923076923,975
15138.461538461539,-42
15146.153846153846,-122
15153.846153846154,-40
15161.538461538463,-169
15169.23076923077,-195
15176.923076923078,-148
15184.615384615385,-171
15192.307692307693,-183
15200.0,-162
15207.692307692309,-160
15215.384615384615,-153
15223.076923076924,-124
15230.76923076923,-115
15238.461538461539,-117
15246.153846153846,-106
15253.846153846154,-91
15261.538461538463,-80
15269.23076923077,-63
15276.923076923078,-51
15284.615384615385,-47
15292.307692307693,-32
15300.0,-9
15307.692307692309,16
15315.384615384615,47
15323.076923076924,73
15330.76923076923,98
15338.461538461539,129
15346.153846153846,160
15353.846153846154,186
15361.538461538463,204
15369.23076923077,207
15376.923076923078,179
15384.615384615385,122
15392.307692307693,58
15400.0,-4
15407.692307692309,-65
15415.384615384615,-110
15423.076923076924,-141
15430.76923076923,-164
15438.461538461539,-171
15446.153846153846,-169
15453.846153846154,-169
15461.538461538463,-164
15469.23076923077,-157
15476.923076923078,-150
15484.615384615385,-143
15492.307692307693,-139
15500.0,-127
15507.692307692309,-115
15515.384615384615,-115
15523.076923076924,-113
15530.76923076923,-103
15538.461538461539,-94
15546.153846153846,-84
15553.846153846154,-80
15561.538461538463,-80
15569.23076923077,-80
15576.923076923078,-75
15584.615384615385,-70
15592.307692307693,-68
15600.0,-65
15607.692307692309,-65
15615.384615384615,-65
15623.076923076924,-58
15630.76923076923,-56
15638.461538461539,-56
15646.153846153846,-51
15653.846153846154,-51
15661.538461538463,-54
15669.23076923077,-47
15676.923076923078,-37
15684.615384615385,-32
15692.307692307693,-32
15700.0,-25
15707.692307692309,-18
15715.384615384615,-21
15723.076923076924,-21
15730.76923076923,-16
15738.461538461539,-16
15746.153846153846,-9
15753.846153846154,-2
15761.538461538463,-2
15769.23076923077,0
15776.923076923078,4
15784.615384615385,2
15792.307692307693,-4
15800.0,0
15807.692307692309,14
15815.384615384615,16
15823.076923076924,11
15830.76923076923,18
15838.461538461539,18
15846.153846153846,11
15853.846153846154,14
15861.538461538463,28
15869.23076923077,37
15876.923076923078,49
15884.615384615385,68
15892.307692307693,73
15900.0,58
15907.692307692309,54
15915.384615384615,54
15923.076923076924,40
15930.76923076923,28
15938.461538461539,32
15946.153846153846,32
15953.846153846154,28
15961.538461538463,25
15969.23076923077,25
15976.923076923078,21
15984.615384615385,21
15992.307692307693,23
16000.0,18
16007.692307692309,14
16015.384615384615,16
16023.076923076924,16
16030.76923076923,18
16038.461538461539,18
16046.153846153846,9
16053.846153846154,-37
16061.538461538463,-162
16069.23076923077,-259
16076.923076923078,-80
16084.615384615385,499
16092.307692307693,1477
16100.0,2396
16107.692307692309,2153
16115.384615384615,737
16123.076923076924,-190
16130.76923076923,-82
16138.461538461539,-4
16146.153846153846,-193
16153.846153846154,-202
16161.538461538463,-146
16169.23076923077,-183
16176.923076923078,-186
16184.615384615385,-150
16192.307692307693,-148
16200.0,-150
16207.692307692309,-129
16215.384615384615,-113
16223.076923076924,-103
16230.76923076923,-94
16238.461538461539,-87
16246.153846153846,-80
16253.846153846154,-63
16261.538461538463,-49
16269.23076923077,-37
16276.923076923078,-21
16284.615384615385,0
16292.307692307693,23
16300.0,51
16307.692307692309,84
16315.384615384615,122
16323.076923076924,155
16330.76923076923,186
16338.461538461539,212
16346.153846153846,233
16353.846153846154,233
16361.538461538463,202
16369.23076923077,141
16376.923076923078,65
16384.615384615387,-2
16392.30769230769,-61
16400.0,-106
16407.69230769231,-139
16415.384615384617,-157
16423.076923076922,-167
16430.76923076923,-167
16438.46153846154,-164
16446.153846153848,-162
16453.846153846156,-155
16461.53846153846,-146
16469.23076923077,-139
16476.923076923078,-129
16484.615384615387,-120
16492.30769230769,-113
16500.0,-106
16507.69230769231,-98
16515.384615384617,-91
16523.076923076922,-87
16530.76923076923,-80
16538.46153846154,-75
16546.153846153848,-73
16553.846153846156,-68
16561.53846153846,-65
16569.23076923077,-61
16576.923076923078,-58
16584.615384615387,-58
16592.30769230769,-56
16600.0,-56
16607.69230769231,-51
16615.384615384617,-47
16623.076923076922,-44
16630.76923076923,-40
16638.46153846154,-37
16646.153846153848,-40
16653.846153846156,-37
16661.53846153846,-35
16669.23076923077,-30
16676.923076923078,-30
16684.615384615387,-25
16692.30769230769,-23
16700.0,-21
16707.69230769231,-16
16715.384615384617,-11
16723.076923076922,-11
16730.76923076923,-11
16738.46153846154,-14
16746.153846153848,-14
16753.846153846156,-7
16761.53846153846,7
16769.23076923077,28
16776.923076923078,51
16784.615384615387,49
16792.30769230769,37
16800.0,42
16807.69230769231,44
16815.384615384617,25
16823.076923076922,11
16830.76923076923,14
16838.46153846154,18
16846.153846153848,18
16853.846153846156,14
16861.53846153846,9
16869.23076923077,7
16876.923076923078,4
16884.615384615387,4
16892.30769230769,7
16900.0,4
16907.69230769231,2
16915.384615384617,2
16923.076923076922,2
16930.76923076923,2
16938.46153846154,0
16946.153846153848,-25
16953.846153846156,-129
16961.53846153846,-252
16969.23076923077,-160
16976.923076923078,275
16984.615384615387,1095
16992.30769230769,2087
17000.0,2280
17007.69230769231,1152
17015.384615384617,-7
17023.076923076922,-157
17030.76923076923,-23
17038.46153846154,-157
17046.153846153848,-219
17053.846153846156,-162
17061.53846153846,-176
17069.23076923077,-193
17076.923076923078,-164
17084.615384615387,-148
17092.30769230769,-153
17100.0,-141
17107.69230769231,-124
17115.384615384617,-113
17123.076923076922,-101
17130.76923076923,-91
17138.46153846154,-82
17146.153846153848,-70
17153.846153846156,-56
17161.53846153846,-44
17169.23076923077,-30
17176.923076923078,-9
17184.615384615387,16
17192.30769230769,44
17200.0,75
17207.69230769231,108
17215.384615384617,141
17223.076923076922,171
17230.76923076923,197
17238.46153846154,214
17246.153846153848,214
17253.846153846156,186
17261.53846153846,124
17269.23076923077,51
17276.923076923078,-14
17284.615384615387,-70
17292.30769230769,-113
17300.0,-141
17307.69230769231,-157
17315.384615384617,-167
17323.076923076922,-174
17330.76923076923,-171
17338.46153846154,-164
17346.153846153848,-157
17353.846153846156,-153
17361.53846153846,-148
17369.23076923077,-141
17376.923076923078,-136
17384.615384615387,-129
17392.30769230769,-120
17400.0,-113
17407.69230769231,-106
17415.384615384617,-101
17423.076923076922,-94
17430.76923076923,-87
17438.46153846154,-82
17446.153846153848,-77
17453.846153846156,-73
17461.53846153846,-70
17469.23076923077,-68
17476.923076923078,-63
17484.615384615387,-58
17492.30769230769,-56
17500.0,-61
17507.69230769231,-61
17515.384615384617,-54
17523.076923076922,-49
17530.76923076923,-47
17538.46153846154,-44
17546.153846153848,-42
17553.846153846156,-40
17561.53846153846,-35
17569.23076923077,-32
17576.923076923078,-30
17584.615384615387,-30
17592.30769230769,-25
17600.0,-21
17607.69230769231,-18
17615.384615384617,-16
17623.076923076922,-14
17630.76923076923,-11
17638.46153846154,-11
17646.153846153848,-7
17653.846153846156,-4
17661.53846153846,-4
17669.23076923077,-2
17676.923076923078,-2
17684.615384615387,0
17692.30769230769,2
17700.0,2
17707.69230769231,4
17715.384615384617,9
17723.076923076922,9
17730.76923076923,9
17738.46153846154,11
17746.153846153848,14
17753.846153846156,9
17761.53846153846,9
17769.23076923077,11
17776.923076923078,11
17784.615384615387,11
17792.30769230769,14
17800.0,11
17807.69230769231,11
17815.384615384617,14
17823.076923076922,11
17830.76923076923,7
17838.46153846154,11
17846.153846153848,14
17853.846153846156,7
17861.53846153846,2
17869.23076923077,4
17876.923076923078,7
17884.615384615387,7
17892.30769230769,9
17900.0,9
17907.69230769231,9
17915.384615384617,7
17923.076923076922,7
17930.76923076923,7
17938.46153846154,4
17946.153846153848,4
17953.846153846156,2
17961.53846153846,9
17969.23076923077,18
17976.923076923078,14
17984.615384615387,11
17992.30769230769,14
18000.0,14
18007.69230769231,9
18015.384615384617,11
18023.076923076922,14
18030.76923076923,16
18038.46153846154,9
18046.153846153848,9
18053.846153846156,21
18061.53846153846,28
18069.23076923077,25
18076.923076923078,25
18084.615384615387,25
18092.30769230769,23
18100.0,21
18107.69230769231,25
18115.384615384617,35
18123.076923076922,30
18130.76923076923,23
18138.46153846154,32
18146.153846153848,42
18153.846153846156,40
18161.53846153846,32
18169.23076923077,25
18176.923076923078,16
18184.615384615387,16
18192.30769230769,35
18200.0,54
18207.69230769231,63
18215.384615384617,73
18223.076923076922,73
18230.76923076923,61
18238.46153846154,54
18246.153846153848,44
18253.846153846156,37
18261.53846153846,40
18269.23076923077,40
18276.923076923078,42
18284.615384615387,42
18292.30769230769,35
18300.0,32
18307.69230769231,37
18315.384615384617,30
18323.076923076922,25
18330.76923076923,35
18338.46153846154,35
18346.153846153848,18
18353.846153846156,-58
18361.53846153846,-202
18369.23076923077,-207
18376.923076923078,134
18384.615384615387,892
18392.30769230769,1976
18400.0,2558
18407.69230769231,1722
18415.384615384617,296
18423.076923076922,-188
18430.76923076923,0
18438.46153846154,-65
18446.153846153848,-212
18453.846153846156,-164
18461.53846153846,-139
18469.23076923077,-171
18476.923076923078,-160
18484.615384615387,-141
18492.30769230769,-146
18500.0,-136
18507.69230769231,-115
18515.384615384617,-98
18523.076923076922,-91
18530.76923076923,-89
18538.46153846154,-80
18546.153846153848,-56
18553.846153846156,-44
18561.53846153846,-40
18569.23076923077,-23
18576.923076923078,-14
18584.615384615387,-2
18592.30769230769,28
18600.0,58
18607.69230769231,87
18615.384615384617,122
18623.076923076922,157
18630.76923076923,186
18638.46153846154,214
18646.153846153848,240
18653.846153846156,259
18661.53846153846,256
18669.23076923077,214
18676.923076923078,148
18684.615384615387,84
18692.30769230769,23
18700.0,-32
18707.69230769231,-75
18715.384615384617,-98
18723.076923076922,-117
18730.76923076923,-129
18738.46153846154,-127
18746.153846153848,-117
18753.846153846156,-115
18761.53846153846,-115
18769.23076923077,-108
18776.923076923078,-96
18784.615384615387,-91
18792.30769230769,-89
18800.0,-84
18807.69230769231,-77
18815.384615384617,-70
18823.076923076922,-70
18830.76923076923,-70
18838.46153846154,-61
18846.153846153848,-54
18853.846153846156,-56
18861.53846153846,-58
18869.23076923077,-54
18876.923076923078,-54
18884.615384615387,-56
18892.30769230769,-56
18900.0,-56
18907.69230769231,-54
18915.384615384617,-49
18923.076923076922,-47
18930.76923076923,-44
18938.46153846154,-44
18946.153846153848,-44
18953.846153846156,-37
18961.53846153846,-30
18969.23076923077,-30
18976.923076923078,-30
18984.615384615387,-28
18992.30769230769,-25
19000.0,-23
19007.69230769231,-18
19015.384615384617,-16
19023.076923076922,-14
19030.76923076923,-11
19038.46153846154,-9
19046.153846153848,-4
19053.846153846156,0
19061.53846153846,2
19069.23076923077,2
19076.923076923078,7
19084.615384615387,9
19092.30769230769,9
19100.0,9
19107.69230769231,7
19115.384615384617,2
19123.076923076922,9
19130.76923076923,30
19138.46153846154,51
19146.153846153848,63
19153.846153846156,63
19161.53846153846,56
19169.23076923077,44
19176.923076923078,32
19184.615384615387,21
19192.30769230769,21
19200.0,28
19207.69230769231,28
19215.384615384617,25
19223.076923076922,23
19230.76923076923,23
19238.46153846154,23
19246.153846153848,25
19253.846153846156,25
19261.53846153846,25
19269.23076923077,23
19276.923076923078,23
19284.615384615387,23
19292.30769230769,4
19300.0,-91
19307.69230769231,-226
19315.384615384617,-171
19323.076923076922,240
19330.76923076923,1060
19338.46153846154,2122
19346.153846153848,2473
19353.846153846156,1406
19361.53846153846,106
19369.23076923077,-157
19376.923076923078,4
19384.615384615387,-115
19392.30769230769,-204
19400.0,-146
19407.69230769231,-153
19415.384615384617,-179
19423.076923076922,-150
19430.76923076923,-136
19438.46153846154,-139
19446.153846153848,-122
19453.846153846156,-106
19461.53846153846,-98
19469.23076923077,-87
19476.923076923078,-73
19484.615384615387,-63
19492.30769230769,-54
19500.0,-42
19507.69230769231,-25
19515.384615384617,-9
19523.076923076922,9
19530.76923076923,32
19538.46153846154,58
19546.153846153848,91
19553.846153846156,129
19561.53846153846,164
19569.23076923077,197
19576.923076923078,226
19584.615384615387,247
19592.30769230769,256
19600.0,237
19607.69230769231,186
19615.384615384617,110
19623.076923076922,32
19630.76923076923,-30
19638.46153846154,-82
19646.153846153848,-124
19653.846153846156,-148
19661.53846153846,-162
19669.23076923077,-169
19676.923076923078,-169
19684.615384615387,-169
19692.30769230769,-169
19700.0,-167
19707.69230769231,-162
19715.384615384617,-153
19723.076923076922,-143
19730.76923076923,-136
19738.46153846154,-129
19746.153846153848,-120
19753.846153846156,-113
19761.53846153846,-108
19769.23076923077,-101
19776.923076923078,-91
19784.615384615387,-87
19792.30769230769,-80
19800.0,-73
19807.69230769231,-68
19815.384615384617,-63
19823.076923076922,-58
19830.76923076923,-54
19838.46153846154,-49
19846.153846153848,-47
19853.846153846156,-44
19861.53846153846,-42
19869.23076923077,-40
19876.923076923078,-35
19884.615384615387,-32
19892.30769230769,-30
19900.0,-28
19907.69230769231,-25
19915.384615384617,-21
19923.076923076922,-18
19930.76923076923,-16
19938.46153846154,-16
19946.153846153848,-11
19953.846153846156,-9
19961.53846153846,-9
19969.23076923077,-7
19976.923076923078,-2
19984.615384615387,0
19992.30769230769,0
20000.0,0
20007.69230769231,-4
20015.384615384617,-4
20023.076923076922,7
20030.76923076923,32
20038.46153846154,56
20046.153846153848,63
20053.846153846156,54
20061.53846153846,51
20069.23076923077,47
20076.923076923078,35
20084.615384615387,23
20092.30769230769,23
20100.0,28
20107.69230769231,28
20115.384615384617,25
20123.076923076922,21
20130.76923076923,18
20138.46153846154,18
20146.153846153848,18
20153.846153846156,16
20161.53846153846,16
20169.23076923077,16
20176.923076923078,18
20184.615384615387,16
20192.30769230769,11
20200.0,-2
20207.69230769231,-68
20215.384615384617,-195
20223.076923076922,-200
20230.76923076923,103
20238.46153846154,772
20246.153846153848,1771
20253.846153846156,2346
20261.53846153846,1587
20269.23076923077,275
20276.923076923078,-181
20284.615384615387,-35
20292.30769230769,-94
20300.0,-202
20307.69230769231,-157
20315.384615384617,-150
20323.076923076922,-179
20330.76923076923,-160
20338.46153846154,-139
20346.153846153848,-139
20353.846153846156,-127
20361.53846153846,-110
20369.23076923077,-103
20376.923076923078,-98
20384.615384615387,-87
20392.30769230769,-75
20400.0,-63
20407.69230769231,-49
20415.384615384617,-35
20423.076923076922,-23
20430.76923076923,-4
20438.46153846154,16
20446.153846153848,44
20453.846153846156,70
20461.53846153846,101
20469.23076923077,134
20476.923076923078,164
20484.615384615387,186
20492.30769230769,207
20500.0,221
20507.69230769231,207
20515.384615384617,162
20523.076923076922,96
20530.76923076923,23
20538.46153846154,-35
20546.153846153848,-87
20553.846153846156,-131
20561.53846153846,-160
20569.23076923077,-171
20576.923076923078,-176
20584.615384615387,-174
20592.30769230769,-169
20600.0,-167
20607.69230769231,-164
20615.384615384617,-162
20623.076923076922,-150
20630.76923076923,-131
20638.46153846154,-122
20646.153846153848,-122
20653.846153846156,-115
20661.53846153846,-101
20669.23076923077,-89
20676.923076923078,-82
20684.615384615387,-82
20692.30769230769,-80
20700.0,-80
20707.69230769231,-75
20715.384615384617,-65
20723.076923076922,-58
20730.76923076923,-54
20738.46153846154,-54
20746.153846153848,-54
20753.846153846156,-47
20761.53846153846,-40
20769.23076923077,-42
20776.923076923078,-44
20784.615384615387,-40
20792.30769230769,-35
20800.0,-30
20807.69230769231,-25
20815.384615384617,-28
20823.076923076922,-30
20830.76923076923,-30
20838.46153846154,-23
20846.153846153848,-21
20853.846153846156,-21
20861.53846153846,-21
20869.23076923077,-14
20876.923076923078,-11
20884.615384615387,-14
20892.30769230769,-9
20900.0,-7
20907.69230769231,-7
20915.384615384617,-4
20923.076923076922,2
20930.76923076923,4
20938.46153846154,9
20946.153846153848,9
20953.846153846156,7
20961.53846153846,2
20969.23076923077,-2
20976.923076923078,11
20984.615384615387,37
20992.30769230769,54
21000.0,61
21007.69230769231,63
21015.384615384617,51
21023.076923076922,37
21030.76923076923,30
21038.46153846154,25
21046.153846153848,30
21053.846153846156,30
21061.53846153846,23
21069.23076923077,18
21076.923076923078,18
21084.615384615387,23
21092.30769230769,23
21100.0,23
21107.69230769231,21
21115.384615384617,18
21123.076923076922,14
21130.76923076923,14
21138.46153846154,18
21146.153846153848,16
21153.846153846156,-28
21161.53846153846,-157
21169.23076923077,-256
21176.923076923078,-80
21184.615384615387,473
21192.30769230769,1415
21200.0,2365
21207.69230769231,2207
21215.384615384617,805
21223.076923076922,-183
21230.76923076923,-101
21238.46153846154,-4
21246.153846153848,-188
21253.846153846156,-195
21261.53846153846,-124
21269.23076923077,-157
21276.923076923078,-174
21284.615384615387,-141
21292.30769230769,-129
21300.0,-129
21307.69230769231,-115
21315.384615384617,-101
21323.076923076922,-89
21330.76923076923,-77
21338.46153846154,-70
21346.153846153848,-61
21353.846153846156,-44
21361.53846153846,-30
21369.23076923077,-21
21376.923076923078,-4
21384.615384615387,18
21392.30769230769,44
21400.0,73
21407.69230769231,103
21415.384615384617,139
21423.076923076922,171
21430.76923076923,207
21438.46153846154,237
21446.153846153848,256
21453.846153846156,261
21461.53846153846,233
21469.23076923077,176
21476.923076923078,103
21484.615384615387,28
21492.30769230769,-40
21500.0,-89
21507.69230769231,-124
21515.384615384617,-148
21523.076923076922,-160
21530.76923076923,-162
21538.46153846154,-160
21546.153846153848,-155
21553.846153846156,-150
21561.53846153846,-143
21569.23076923077,-136
21576.923076923078,-134
21584.615384615387,-124
21592.30769230769,-110
21600.0,-108
21607.69230769231,-106
21615.384615384617,-98
21623.076923076922,-94
21630.76923076923,-91
21638.46153846154,-84
21646.153846153848,-80
21653.846153846156,-80
21661.53846153846,-77
21669.23076923077,-77
21676.923076923078,-77
21684.615384615387,-75
21692.30769230769,-75
21700.0,-77
21707.69230769231,-75
21715.384615384617,-77
21723.076923076922,-75
21730.76923076923,-65
21738.46153846154,-63
21746.153846153848,-63
21753.846153846156,-61
21761.53846153846,-56
21769.23076923077,-51
21776.923076923078,-51
21784.615384615387,-49
21792.30769230769,-44
21800.0,-42
21807.69230769231,-37
21815.384615384617,-32
21823.076923076922,-30
21830.76923076923,-35
21838.46153846154,-35
21846.153846153848,-30
21853.846153846156,-11
21861.53846153846,16
21869.23076923077,40
21876.923076923078,40
21884.615384615387,32
21892.30769230769,35
21900.0,30
21907.69230769231,16
21915.384615384617,11
21923.076923076922,18
21930.76923076923,21
21938.46153846154,14
21946.153846153848,16
21953.846153846156,14
21961.53846153846,9
21969.23076923077,9
21976.923076923078,11
21984.615384615387,11
21992.30769230769,9
22000.0,11
22007.69230769231,11
22015.384615384617,11
22023.076923076922,11
22030.76923076923,-23
22038.46153846154,-141
22046.153846153848,-249
22053.846153846156,-103
22061.53846153846,409
22069.23076923077,1328
22076.923076923078,2306
22084.615384615387,2259
22092.30769230769,949
22100.0,-94
22107.69230769231,-106
22115.384615384617,-11
22123.076923076922,-171
22130.76923076923,-197
22138.46153846154,-143
22146.153846153848,-171
22153.846153846156,-179
22161.53846153846,-148
22169.23076923077,-141
22176.923076923078,-139
22184.615384615387,-122
22192.30769230769,-110
22200.0,-101
22207.69230769231,-89
22215.384615384617,-80
22223.076923076922,-73
22230.76923076923,-56
22238.46153846154,-40
22246.153846153848,-25
22253.846153846156,-9
22261.53846153846,14
22269.23076923077,35
22276.923076923078,65
22284.615384615387,98
22292.30769230769,134
22300.0,169
22307.69230769231,200
22315.384615384617,230
22323.076923076922,245
22330.76923076923,242
22338.46153846154,212
22346.153846153848,148
22353.846153846156,68
22361.53846153846,0
22369.23076923077,-54
22376.923076923078,-98
22384.615384615387,-131
22392.30769230769,-150
22400.0,-160
22407.69230769231,-162
22415.384615384617,-162
22423.076923076922,-155
22430.76923076923,-150
22438.46153846154,-146
22446.153846153848,-141
22453.846153846156,-136
22461.53846153846,-127
22469.23076923077,-120
22476.923076923078,-113
22484.615384615387,-106
22492.30769230769,-101
22500.0,-101
22507.69230769231,-94
22515.384615384617,-80
22523.076923076922,-75
22530.76923076923,-73
22538.46153846154,-68
22546.153846153848,-65
22553.846153846156,-61
22561.53846153846,-56
22569.23076923077,-54
22576.923076923078,-54
22584.615384615387,-49
22592.30769230769,-49
22600.0,-47
22607.69230769231,-42
22615.384615384617,-40
22623.076923076922,-40
22630.76923076923,-35
22638.46153846154,-35
22646.153846153848,-32
22653.846153846156,-28
22661.53846153846,-28
22669.23076923077,-28
22676.923076923078,-25
22684.615384615387,-25
22692.30769230769,-21
22700.0,-18
22707.69230769231,-16
22715.384615384617,-16
22723.076923076922,-16
22730.76923076923,-16
22738.46153846154,-11
22746.153846153848,-7
22753.846153846156,-4
22761.53846153846,-2
22769.23076923077,0
22776.923076923078,2
22784.615384615387,2
22792.30769230769,4
22800.0,7
22807.69230769231,9
22815.384615384617,9
22823.076923076922,11
22830.76923076923,11
22838.46153846154,9
22846.153846153848,9
22853.846153846156,2
22861.53846153846,0
22869.23076923077,21
22876.923076923078,44
22884.615384615387,56
22892.30769230769,61
22900.0,51
22907.69230769231,42
22915.384615384617,32
22923.076923076922,18
22930.76923076923,14
22938.46153846154,18
22946.153846153848,14
22953.846153846156,11
22961.53846153846,9
22969.23076923077,4
22976.923076923078,4
22984.615384615387,7
22992.30769230769,0
23000.0,-4
23007.69230769231,2
23015.384615384617,9
23023.076923076922,4
23030.76923076923,-2
23038.46153846154,0
23046.153846153848,-7
23053.846153846156,-54
23061.53846153846,-183
23069.23076923077,-252
23076.923076923078,-40
23084.615384615387,525
23092.30769230769,1472
23100.0,2322
23107.69230769231,2014
23115.384615384617,671
23123.076923076922,-162
23130.76923076923,-94
23138.46153846154,-49
23146.153846153848,-200
23153.846153846156,-200
23161.53846153846,-160
23169.23076923077,-188
23176.923076923078,-179
23184.615384615387,-143
23192.30769230769,-146
23200.0,-146
23207.69230769231,-124
23215.384615384617,-115
23223.076923076922,-115
23230.76923076923,-101
23238.46153846154,-84
23246.153846153848,-75
23253.846153846156,-63
23261.53846153846,-51
23269.23076923077,-40
23276.923076923078,-21
23284.615384615387,4
23292.30769230769,28
23300.0,56
23307.69230769231,84
23315.384615384617,115
23323.076923076922,157
23330.76923076923,197
23338.46153846154,223
23346.153846153848,242
23353.846153846156,249
23361.53846153846,221
23369.23076923077,162
23376.923076923078,91
23384.615384615387,25
23392.30769230769,-40
23400.0,-89
23407.69230769231,-117
23415.384615384617,-139
23423.076923076922,-150
23430.76923076923,-150
23438.46153846154,-153
23446.153846153848,-150
23453.846153846156,-141
23461.53846153846,-134
23469.23076923077,-131
23476.923076923078,-120
23484.615384615387,-108
23492.30769230769,-103
23500.0,-103
23507.69230769231,-96
23515.384615384617,-87
23523.076923076922,-77
23530.76923076923,-68
23538.46153846154,-65
23546.153846153848,-63
23553.846153846156,-56
23561.53846153846,-58
23569.23076923077,-61
23576.923076923078,-56
23584.615384615387,-49
23592.30769230769,-42
23600.0,-40
23607.69230769231,-44
23615.384615384617,-44
23623.076923076922,-42
23630.76923076923,-47
23638.46153846154,-37
23646.153846153848,-30
23653.846153846156,-37
23661.53846153846,-35
23669.23076923077,-21
23676.923076923078,-21
23684.615384615387,-28
23692.30769230769,-21
23700.0,-11
23707.69230769231,-11
23715.384615384617,-7
23723.076923076922,-7
23730.76923076923,-11
23738.46153846154,-9
23746.153846153848,-2
23753.846153846156,0
23761.53846153846,0
23769.23076923077,9
23776.923076923078,18
23784.615384615387,14
23792.30769230769,2
23800.0,4
23807.69230769231,16
23815.384615384617,2
23823.076923076922,-9
23830.76923076923,18
23838.46153846154,49
23846.153846153848,54
23853.846153846156,61
23861.53846153846,56
23869.23076923077,32
23876.923076923078,23
23884.615384615387,25
23892.30769230769,23
23900.0,23
23907.69230769231,23
23915.384615384617,23
23923.076923076922,21
23930.76923076923,18
23938.46153846154,14
23946.153846153848,11
23953.846153846156,16
23961.53846153846,16
23969.23076923077,11
23976.923076923078,14
23984.615384615387,14
23992.30769230769,14
24000.0,14
24007.69230769231,7
24015.384615384617,-65
24023.076923076922,-214
24030.76923076923,-247
24038.46153846154,68
24046.153846153848,782
24053.846153846156,1832
24061.53846153846,2504
24069.23076923077,1774
24076.923076923078,313
24084.615384615387,-226
24092.30769230769,-7
24100.0,-61
24107.69230769231,-223
24115.384615384617,-171
24123.076923076922,-148
24130.76923076923,-190
24138.46153846154,-169
24146.153846153848,-139
24153.846153846156,-146
24161.53846153846,-141
24169.23076923077,-124
24176.923076923078,-117
24184.615384615387,-106
24192.30769230769,-91
24200.0,-84
24207.69230769231,-80
24215.384615384617,-68
24223.076923076922,-49
24230.76923076923,-35
24238.46153846154,-21
24246.153846153848,-2
24253.846153846156,25
24261.53846153846,58
24269.23076923077,94
24276.923076923078,134
24284.615384615387,171
24292.30769230769,202
24300.0,228
24307.69230769231,242
24315.384615384617,237
24323.076923076922,197
24330.76923076923,127
24338.46153846154,51
24346.153846153848,-16
24353.846153846156,-73
24361.53846153846,-110
24369.23076923077,-139
24376.923076923078,-157
24384.615384615387,-167
24392.30769230769,-167
24400.0,-162
24407.69230769231,-157
24415.384615384617,-150
24423.076923076922,-143
24430.76923076923,-131
24438.46153846154,-124
24446.153846153848,-115
24453.846153846156,-106
24461.53846153846,-98
24469.23076923077,-91
24476.923076923078,-84
24484.615384615387,-80
24492.30769230769,-75
24500.0,-70
24507.69230769231,-63
24515.384615384617,-58
24523.076923076922,-56
24530.76923076923,-54
24538.46153846154,-51
24546.153846153848,-47
24553.846153846156,-44
24561.53846153846,-44
24569.23076923077,-44
24576.923076923078,-40
24584.615384615387,-35
24592.30769230769,-32
24600.0,-30
24607.69230769231,-25
24615.384615384617,-25
24623.076923076922,-23
24630.76923076923,-18
24638.46153846154,-14
24646.153846153848,-11
24653.846153846156,-11
24661.53846153846,-9
24669.23076923077,-9
24676.923076923078,-4
24684.615384615387,-2
24692.30769230769,0
24700.0,2
24707.69230769231,4
24715.384615384617,7
24723.076923076922,9
24730.76923076923,11
24738.46153846154,11
24746.153846153848,14
24753.846153846156,14
24761.53846153846,16
24769.23076923077,18
24776.923076923078,21
24784.615384615387,23
24792.30769230769,23
24800.0,18
24807.69230769231,21
24815.384615384617,23
24823.076923076922,23
24830.76923076923,16
24838.46153846154,9
24846.153846153848,11
24853.846153846156,30
24861.53846153846,54
24869.23076923077,65
24876.923076923078,63
24884.615384615387,54
24892.30769230769,47
24900.0,40
24907.69230769231,25
24915.384615384617,18
24923.076923076922,28
24930.76923076923,28
24938.46153846154,21
24946.153846153848,18
24953.846153846156,18
24961.53846153846,14
24969.23076923077,14
24976.923076923078,14
24984.615384615387,11
24992.30769230769,11
25000.0,11
25007.69230769231,11
25015.384615384617,11
25023.076923076922,9
25030.76923076923,-21
25038.46153846154,-134
25046.153846153848,-245
25053.846153846156,-120
25061.53846153846,353
25069.23076923077,1222
25076.923076923078,2219
25084.615384615387,2311
25092.30769230769,1104
25100.0,-21
25107.69230769231,-134
25115.384615384617,-21
25123.076923076922,-160
25130.76923076923,-207
25138.46153846154,-153
25146.153846153848,-171
25153.846153846156,-186
25161.53846153846,-155
25169.23076923077,-143
25176.923076923078,-143
25184.615384615387,-129
25192.30769230769,-115
25200.0,-110
25207.69230769231,-98
25215.384615384617,-84
25223.076923076922,-77
25230.76923076923,-65
25238.46153846154,-54
25246.153846153848,-42
25253.846153846156,-28
25261.53846153846,-9
25269.23076923077,11
25276.923076923078,40
25284.615384615387,70
25292.30769230769,103
25300.0,139
25307.69230769231,169
25315.384615384617,195
25323.076923076922,216
25330.76923076923,226
25338.46153846154,209
25346.153846153848,153
25353.846153846156,84
25361.53846153846,18
25369.23076923077,-42
25376.923076923078,-91
25384.615384615387,-129
25392.30769230769,-150
25400.0,-160
25407.69230769231,-164
25415.384615384617,-162
25423.076923076922,-160
25430.76923076923,-155
25438.46153846154,-146
25446.153846153848,-136
25453.846153846156,-129
25461.53846153846,-122
25469.23076923077,-115
25476.923076923078,-106
25484.615384615387,-96
25492.30769230769,-91
25500.0,-84
25507.69230769231,-77
25515.384615384617,-70
25523.076923076922,-65
25530.76923076923,-61
25538.46153846154,-56
25546.153846153848,-54
25553.846153846156,-51
25561.53846153846,-47
25569.23076923077,-44
25576.923076923078,-42
25584.615384615387,-40
25592.30769230769,-37
25600.0,-40
25607.69230769231,-40
25615.384615384617,-37
25623.076923076922,-35
25630.76923076923,-32
25638.46153846154,-32
25646.153846153848,-32
25653.846153846156,-28
25661.53846153846,-25
25669.23076923077,-23
25676.923076923078,-23
25684.615384615387,-21
25692.30769230769,-16
25700.0,-14
25707.69230769231,-11
25715.384615384617,-7
25723.076923076922,-4
25730.76923076923,-2
25738.46153846154,2
25746.153846153848,4
25753.846153846156,4
25761.53846153846,7
25769.23076923077,14
25776.923076923078,14
25784.615384615387,14
25792.30769230769,21
25800.0,23
25807.69230769231,25
25815.384615384617,28
25823.076923076922,28
25830.76923076923,28
25838.46153846154,28
25846.153846153848,28
25853.846153846156,30
25861.53846153846,28
25869.23076923077,23
25876.923076923078,21
25884.615384615387,21
25892.30769230769,16
25900.0,9
25907.69230769231,9
25915.384615384617,25
25923.076923076922,49
25930.76923076923,58
25938.46153846154,58
25946.153846153848,56
25953.846153846156,47
25961.53846153846,35
25969.23076923077,23
25976.923076923078,14
25984.615384615387,18
25992.30769230769,25
26000.0,23
26007.69230769231,16
26015.384615384617,9
26023.076923076922,7
26030.76923076923,9
26038.46153846154,9
26046.153846153848,2
26053.846153846156,2
26061.53846153846,7
26069.23076923077,9
26076.923076923078,9
26084.615384615387,4
26092.30769230769,-14
26100.0,-101
26107.69230769231,-223
26115.384615384617,-179
26123.076923076922,188
26130.76923076923,935
26138.46153846154,1955
26146.153846153848,2386
26153.846153846156,1448
26161.53846153846,155
26169.23076923077,-181
26176.923076923078,-14
26184.615384615387,-108
26192.30769230769,-216
26200.0,-164
26207.69230769231,-157
26215.384615384617,-186
26223.076923076922,-160
26230.76923076923,-136
26238.46153846154,-141
26246.153846153848,-134
26253.846153846156,-117
26261.53846153846,-108
26269.23076923077,-91
26276.923076923078,-80
26284.615384615387,-75
26292.30769230769,-63
26300.0,-47
26307.69230769231,-32
26315.384615384617,-14
26323.076923076926,4
26330.76923076923,21
26338.46153846154,44
26346.153846153848,75
26353.846153846156,113
26361.53846153846,150
26369.23076923077,183
26376.923076923078,212
26384.615384615387,237
26392.30769230769,261
26400.0,263
26407.69230769231,221
26415.384615384617,146
26423.076923076926,77
26430.76923076923,14
26438.46153846154,-49
26446.153846153848,-94
26453.846153846156,-122
26461.53846153846,-150
26469.23076923077,-155
26476.923076923078,-143
26484.615384615387,-143
26492.30769230769,-148
26500.0,-136
26507.69230769231,-124
26515.384615384617,-117
26523.076923076926,-113
26530.76923076923,-108
26538.46153846154,-96
26546.153846153848,-80
26553.846153846156,-84
26561.53846153846,-84
26569.23076923077,-75
26576.923076923078,-68
26584.615384615387,-63
26592.30769230769,-51
26600.0,-40
26607.69230769231,-42
26615.384615384617,-47
26623.076923076926,-44
26630.76923076923,-37
26638.46153846154,-35
26646.153846153848,-37
26653.846153846156,-35
26661.53846153846,-28
26669.23076923077,-25
26676.923076923078,-23
26684.615384615387,-18
26692.30769230769,-21
26700.0,-30
26707.69230769231,-25
26715.384615384617,-14
26723.076923076926,-14
26730.76923076923,-16
26738.46153846154,-14
26746.153846153848,-11
26753.846153846156,-16
26761.53846153846,-9
26769.23076923077,0
26776.923076923078,-2
26784.615384615387,-4
26792.30769230769,0
26800.0,9
26807.69230769231,18
26815.384615384617,14
26823.076923076926,4
26830.76923076923,7
26838.46153846154,9
26846.153846153848,4
26853.846153846156,4
26861.53846153846,9
26869.23076923077,23
26876.923076923078,47
26884.615384615387,58
26892.30769230769,56
26900.0,51
26907.69230769231,42
26915.384615384617,28
26923.076923076926,25
26930.76923076923,28
26938.46153846154,23
26946.153846153848,16
26953.846153846156,21
26961.53846153846,25
26969.23076923077,21
26976.923076923078,16
26984.615384615387,14
26992.30769230769,7
27000.0,7
27007.69230769231,7
27015.384615384617,11
27023.076923076926,21
27030.76923076923,16
27038.46153846154,-16
27046.153846153848,-122
27053.846153846156,-259
27061.53846153846,-181
27069.23076923077,289
27076.923076923078,1182
27084.615384615387,2238
27092.30769230769,2428
27100.0,1189
27107.69230769231,-61
27115.384615384617,-164
27123.076923076926,23
27130.76923076923,-141
27138.46153846154,-219
27146.153846153848,-139
27153.846153846156,-157
27161.53846153846,-188
27169.23076923077,-150
27176.923076923078,-139
27184.615384615387,-146
27192.30769230769,-127
27200.0,-106
27207.69230769231,-103
27215.384615384617,-96
27223.076923076926,-82
27230.76923076923,-70
27238.46153846154,-61
27246.153846153848,-49
27253.846153846156,-35
27261.53846153846,-23
27269.23076923077,-9
27276.923076923078,16
27284.615384615387,58
27292.30769230769,96
27300.0,122
27307.69230769231,160
27315.384615384617,197
27323.076923076926,223
27330.76923076923,256
27338.46153846154,268
27346.153846153848,237
27353.846153846156,181
27361.53846153846,113
27369.23076923077,35
27376.923076923078,-35
27384.615384615387,-87
27392.30769230769,-122
27400.0,-153
27407.69230769231,-169
27415.384615384617,-169
27423.076923076926,-167
27430.76923076923,-171
27438.46153846154,-164
27446.153846153848,-153
27453.846153846156,-148
27461.53846153846,-143
27469.23076923077,-129
27476.923076923078,-120
27484.615384615387,-117
27492.30769230769,-110
27500.0,-101
27507.69230769231,-91
27515.384615384617,-87
27523.076923076926,-82
27530.76923076923,-75
27538.46153846154,-70
27546.153846153848,-70
27553.846153846156,-65
27561.53846153846,-61
27569.23076923077,-58
27576.923076923078,-61
27584.615384615387,-63
27592.30769230769,-61
27600.0,-51
27607.69230769231,-44
27615.384615384617,-44
27623.076923076926,-42
27630.76923076923,-35
27638.46153846154,-32
27646.153846153848,-32
27653.846153846156,-28
27661.53846153846,-23
27669.23076923077,-21
27676.923076923078,-18
27684.615384615387,-16
27692.30769230769,-11
27700.0,-9
27707.69230769231,-7
27715.384615384617,-4
27723.076923076926,-2
27730.76923076923,0
27738.46153846154,-2
27746.153846153848,-7
27753.846153846156,-9
27761.53846153846,-9
27769.23076923077,9
27776.923076923078,35
27784.615384615387,51
27792.30769230769,56
27800.0,49
27807.69230769231,42
27815.384615384617,37
27823.076923076926,23
27830.76923076923,18
27838.46153846154,28
27846.153846153848,30
27853.846153846156,23
27861.53846153846,21
27869.23076923077,18
27876.923076923078,16
27884.615384615387,18
27892.30769230769,18
27900.0,18
27907.69230769231,18
27915.384615384617,18
27923.076923076926,21
27930.76923076923,21
27938.46153846154,-9
27946.153846153848,-117
27953.846153846156,-245
27961.53846153846,-160
27969.23076923077,282
27976.923076923078,1140
27984.615384615387,2207
27992.30769230769,2452
28000.0,1288
28007.69230769231,42
28015.384615384617,-146
28023.076923076926,-9
28030.76923076923,-148
28038.46153846154,-219
28046.153846153848,-157
28053.846153846156,-169
28061.53846153846,-193
28069.23076923077,-164
28076.923076923078,-150
28084.615384615387,-155
28092.30769230769,-139
28100.0,-124
28107.69230769231,-117
28115.384615384617,-106
28123.076923076926,-96
28130.76923076923,-87
28138.46153846154,-73
28146.153846153848,-58
28153.846153846156,-44
28161.53846153846,-30
28169.23076923077,-14
28176.923076923078,4
28184.615384615387,35
28192.30769230769,73
28200.0,110
28207.69230769231,146
28215.384615384617,181
28223.076923076926,209
28230.76923076923,233
28238.46153846154,240
28246.153846153848,219
28253.846153846156,164
28261.53846153846,87
28269.23076923077,14
28276.923076923078,-51
28284.615384615387,-103
28292.30769230769,-139
28300.0,-157
28307.69230769231,-169
28315.384615384617,-174
28323.076923076926,-171
28330.76923076923,-167
28338.46153846154,-162
28346.153846153848,-153
28353.846153846156,-146
28361.53846153846,-139
28369.23076923077,-129
28376.923076923078,-120
28384.615384615387,-110
28392.30769230769,-106
28400.0,-98
28407.69230769231,-91
28415.384615384617,-82
28423.076923076926,-75
28430.76923076923,-70
28438.46153846154,-65
28446.153846153848,-61
28453.846153846156,-58
28461.53846153846,-56
28469.23076923077,-51
28476.923076923078,-51
28484.615384615387,-51
28492.30769230769,-49
28500.0,-49
28507.69230769231,-49
28515.384615384617,-47
28523.076923076926,-44
28530.76923076923,-47
28538.46153846154,-47
28546.153846153848,-42
28553.846153846156,-42
28561.53846153846,-40
28569.23076923077,-37
28576.923076923078,-37
28584.615384615387,-32
28592.30769230769,-30
28600.0,-28
28607.69230769231,-25
28615.384615384617,-23
28623.076923076926,-23
28630.76923076923,-25
28638.46153846154,-30
28646.153846153848,-28
28653.846153846156,-11
28661.53846153846,16
28669.23076923077,37
28676.923076923078,42
28684.615384615387,35
28692.30769230769,35
28700.0,30
28707.69230769231,11
28715.384615384617,-2
28723.076923076926,7
28730.76923076923,18
28738.46153846154,14
28746.153846153848,11
28753.846153846156,11
28761.53846153846,11
28769.23076923077,9
28776.923076923078,9
28784.615384615387,7
28792.30769230769,7
28800.0,7
28807.69230769231,9
28815.384615384617,9
28823.076923076926,4
28830.76923076923,-30
28838.46153846154,-146
28846.153846153848,-237
28853.846153846156,-77
28861.53846153846,440
28869.23076923077,1345
28876.923076923078,2257
28884.615384615387,2125
28892.30769230769,836
28900.0,-120
28907.69230769231,-113
28915.384615384617,-37
28923.076923076926,-186
28930.76923076923,-200
28938.46153846154,-153
28946.153846153848,-183
28953.846153846156,-186
28961.53846153846,-153
28969.23076923077,-148
28976.923076923078,-148
28984.615384615387,-129
28992.30769230769,-115
29000.0,-106
29007.69230769231,-96
29015.384615384617,-84
29023.076923076926,-75
29030.76923076923,-63
29038.46153846154,-49
29046.153846153848,-37
29053.846153846156,-18
29061.53846153846,0
29069.23076923077,23
29076.923076923078,51
29084.615384615387,84
29092.30769230769,120
29100.0,153
29107.69230769231,183
29115.384615384617,207
29123.076923076926,223
29130.76923076923,223
29138.46153846154,188
29146.153846153848,124
29153.846153846156,51
29161.53846153846,-16
29169.23076923077,-75
29176.923076923078,-120
29184.615384615387,-150
29192.30769230769,-169
29200.0,-176
29207.69230769231,-179
29215.384615384617,-174
29223.076923076926,-171
29230.76923076923,-164
29238.46153846154,-157
29246.153846153848,-153
29253.846153846156,-148
29261.53846153846,-136
29269.23076923077,-122
29276.923076923078,-115
29284.615384615387,-113
29292.30769230769,-108
29300.0,-103
29307.69230769231,-89
29315.384615384617,-77
29323.076923076926,-75
29330.76923076923,-73
29338.46153846154,-68
29346.153846153848,-63
29353.846153846156,-58
29361.53846153846,-56
29369.23076923077,-54
29376.923076923078,-51
29384.615384615387,-51
29392.30769230769,-49
29400.0,-47
29407.69230769231,-44
29415.384615384617,-44
29423.076923076926,-42
29430.76923076923,-40
29438.46153846154,-40
29446.153846153848,-35
29453.846153846156,-32
29461.53846153846,-30
29469.23076923077,-32
29476.923076923078,-28
29484.615384615387,-23
29492.30769230769,-21
29500.0,-18
29507.69230769231,-16
29515.384615384617,-14
29523.076923076926,-11
29530.76923076923,-7
29538.46153846154,-2
29546.153846153848,2
29553.846153846156,4
29561.53846153846,7
29569.23076923077,11
29576.923076923078,11
29584.615384615387,14
29592.30769230769,18
29600.0,21
29607.69230769231,23
29615.384615384617,23
29623.076923076926,23
29630.76923076923,25
29638.46153846154,28
29646.153846153848,28
29653.846153846156,28
29661.53846153846,28
29669.23076923077,30
29676.923076923078,30
29684.615384615387,28
29692.30769230769,23
29700.0,23
29707.69230769231,23
29715.384615384617,23
29723.076923076926,21
29730.76923076923,18
29738.46153846154,18
29746.153846153848,18
29753.846153846156,21
29761.53846153846,23
29769.23076923077,21
29776.923076923078,18
29784.615384615387,16
29792.30769230769,9
29800.0,0
29807.69230769231,4
29815.384615384617,28
29823.076923076926,47
29830.76923076923,56
29838.46153846154,49
29846.153846153848,40
29853.846153846156,35
29861.53846153846,28
29869.23076923077,18
29876.923076923078,18
29884.615384615387,25
29892.30769230769,21
29900.0,16
29907.69230769231,16
29915.384615384617,21
29923.076923076926,18
29930.76923076923,16
29938.46153846154,18
29946.153846153848,18
29953.846153846156,23
29961.53846153846,25
29969.23076923077,2
29976.923076923078,-96
29984.615384615387,-219
29992.30769230769,-157
30000.0,237
30007.69230769231,1038
30015.384615384617,2077
30023.076923076926,2410
30030.76923076923,1368
30038.46153846154,96
30046.153846153848,-169
30053.846153846156,-9
30061.53846153846,-122
30069.23076923077,-209
30076.923076923078,-148
30084.615384615387,-155
30092.30769230769,-186
30100.0,-155
30107.69230769231,-136
30115.384615384617,-136
30123.076923076926,-122
30130.76923076923,-103
30138.46153846154,-98
30146.153846153848,-94
30153.846153846156,-82
30161.53846153846,-63
30169.23076923077,-47
30176.923076923078,-37
30184.615384615387,-25
30192.30769230769,-14
30200.0,0
30207.69230769231,21
30215.384615384617,51
30223.076923076926,80
30230.76923076923,108
30238.46153846154,141
30246.153846153848,176
30253.846153846156,209
30261.53846153846,233
30269.23076923077,254
30276.923076923078,259
30284.615384615387,235
30292.30769230769,174
30300.0,98
30307.69230769231,30
30315.384615384617,-23
30323.076923076926,-73
30330.76923076923,-103
30338.46153846154,-124
30346.153846153848,-139
30353.846153846156,-139
30361.53846153846,-127
30369.23076923077,-124
30376.923076923078,-129
30384.615384615387,-120
30392.30769230769,-101
30400.0,-96
30407.69230769231,-91
30415.384615384617,-80
30423.076923076926,-68
30430.76923076923,-61
30438.46153846154,-56
30446.153846153848,-49
30453.846153846156,-51
30461.53846153846,-47
30469.23076923077,-30
30476.923076923078,-30
30484.615384615387,-35
30492.30769230769,-35
30500.0,-32
30507.69230769231,-35
30515.384615384617,-28
30523.076923076926,-21
30530.76923076923,-25
30538.46153846154,-30
30546.153846153848,-21
30553.846153846156,-18
30561.53846153846,-25
30569.23076923077,-18
30576.923076923078,-11
30584.615384615387,-14
30592.30769230769,-9
30600.0,-4
30607.69230769231,-2
30615.384615384617,2
30623.076923076926,0
30630.76923076923,-4
30638.46153846154,4
30646.153846153848,9
30653.846153846156,4
30661.53846153846,7
30669.23076923077,11
30676.923076923078,14
30684.615384615387,16
30692.30769230769,28
30700.0,58
30707.69230769231,80
30715.384615384617,68
30723.076923076926,54
30730.76923076923,54
30738.46153846154,47
30746.153846153848,37
30753.846153846156,32
30761.53846153846,35
30769.23076923077,37
30776.923076923078,32
30784.615384615387,30
30792.30769230769,35
30800.0,30
30807.69230769231,21
30815.384615384617,28
30823.076923076926,30
30830.76923076923,23
30838.46153846154,23
30846.153846153848,23
30853.846153846156,16
30861.53846153846,-37
30869.23076923077,-181
30876.923076923078,-252
30884.615384615387,16
30892.30769230769,697
30900.0,1719
30907.69230769231,2478
30915.384615384617,1917
30923.076923076926,445
30930.76923076923,-235
30938.46153846154,-28
30946.153846153848,-35
30953.846153846156,-216
30961.53846153846,-179
30969.23076923077,-141
30976.923076923078,-181
30984.615384615387,-169
30992.30769230769,-141
31000.0,-143
31007.69230769231,-134
31015.384615384617,-113
31023.076923076926,-106
31030.76923076923,-96
31038.46153846154,-84
31046.153846153848,-73
31053.846153846156,-63
31061.53846153846,-49
31069.23076923077,-32
31076.923076923078,-18
31084.615384615387,-2
31092.30769230769,14
31100.0,37
31107.69230769231,73
31115.384615384617,108
31123.076923076926,143
31130.76923076923,179
31138.46153846154,209
31146.153846153848,235
31153.846153846156,249
31161.53846153846,245
31169.23076923077,204
31176.923076923078,131
31184.615384615387,51
31192.30769230769,-16
31200.0,-73
31207.69230769231,-117
31215.384615384617,-148
31223.076923076926,-167
31230.76923076923,-174
31238.46153846154,-171
31246.153846153848,-167
31253.846153846156,-162
31261.53846153846,-155
31269.23076923077,-148
31276.923076923078,-141
31284.615384615387,-134
31292.30769230769,-122
31300.0,-115
31307.69230769231,-110
31315.384615384617,-106
31323.076923076926,-96
31330.76923076923,-82
31338.46153846154,-75
31346.153846153848,-70
31353.846153846156,-65
31361.53846153846,-61
31369.23076923077,-58
31376.923076923078,-54
31384.615384615387,-51
31392.30769230769,-49
31400.0,-47
31407.69230769231,-47
31415.384615384617,-42
31423.076923076926,-37
31430.76923076923,-35
31438.46153846154,-32
31446.153846153848,-25
31453.846153846156,-23
31461.53846153846,-21
31469.23076923077,-18
31476.923076923078,-14
31484.615384615387,-11
31492.30769230769,-11
31500.0,-11
31507.69230769231,-11
31515.384615384617,-4
31523.076923076926,0
31530.76923076923,0
31538.46153846154,-4
31546.153846153848,-4
31553.846153846156,2
31561.53846153846,16
31569.23076923077,42
31576.923076923078,61
31584.615384615387,56
31592.30769230769,44
31600.0,47
31607.69230769231,44
31615.384615384617,25
31623.076923076926,18
31630.76923076923,21
31638.46153846154,23
31646.153846153848,21
31653.846153846156,18
31661.53846153846,18
31669.23076923077,16
31676.923076923078,14
31684.615384615387,11
31692.30769230769,16
31700.0,18
31707.69230769231,18
31715.384615384617,18
31723.076923076926,16
31730.76923076923,11
31738.46153846154,-25
31746.153846153848,-148
31753.846153846156,-240
31761.53846153846,-73
31769.23076923077,461
31776.923076923078,1390
31784.615384615387,2327
31792.30769230769,2198
31800.0,871
31807.69230769231,-113
31815.384615384617,-106
31823.076923076926,-32
31830.76923076923,-193
31838.46153846154,-204
31846.153846153848,-153
31853.846153846156,-186
31861.53846153846,-195
31869.23076923077,-162
31876.923076923078,-157
31884.615384615387,-155
31892.30769230769,-136
31900.0,-124
31907.69230769231,-120
31915.384615384617,-110
31923.076923076926,-98
31930.76923076923,-87
31938.46153846154,-75
31946.153846153848,-63
31953.846153846156,-54
31961.53846153846,-37
31969.23076923077,-16
31976.923076923078,7
31984.615384615387,37
31992.30769230769,70
32000.0,101
32007.69230769231,136
32015.384615384617,167
32023.076923076926,195
32030.76923076923,212
32038.46153846154,212
32046.153846153848,181
32053.846153846156,120
32061.53846153846,49
32069.23076923077,-21
32076.923076923078,-82
32084.615384615387,-131
32092.30769230769,-167
32100.0,-181
32107.69230769231,-186
32115.384615384617,-190
32123.076923076926,-188
32130.76923076923,-183
32138.46153846154,-179
32146.153846153848,-169
32153.846153846156,-160
32161.53846153846,-153
32169.23076923077,-143
32176.923076923078,-136
32184.615384615387,-127
32192.30769230769,-115
32200.0,-108
32207.69230769231,-101
32215.384615384617,-87
32223.076923076926,-82
32230.76923076923,-84
32238.46153846154,-82
32246.153846153848,-75
32253.846153846156,-70
32261.53846153846,-70
32269.23076923077,-68
32276.923076923078,-63
32284.615384615387,-58
32292.30769230769,-58
32300.0,-56
32307.69230769231,-58
32315.384615384617,-58
32323.076923076926,-54
32330.76923076923,-54
32338.46153846154,-54
32346.153846153848,-47
32353.846153846156,-44
32361.53846153846,-44
32369.23076923077,-37
32376.923076923078,-30
32384.615384615387,-30
32392.30769230769,-30
32400.0,-25
32407.69230769231,-21
32415.384615384617,-21
32423.076923076926,-18
32430.76923076923,-14
32438.46153846154,-11
32446.153846153848,-7
32453.846153846156,-7
32461.53846153846,-7
32469.23076923077,-4
32476.923076923078,-2
32484.615384615387,0
32492.30769230769,0
32500.0,4
32507.69230769231,9
32515.384615384617,9
32523.076923076926,9
32530.76923076923,11
32538.46153846154,14
32546.153846153848,9
32553.846153846156,9
32561.53846153846,9
32569.23076923077,14
32576.923076923078,16
32584.615384615387,14
32592.30769230769,11
32600.0,14
32607.69230769231,11
32615.384615384617,7
32623.076923076926,0
32630.76923076923,-2
32638.46153846154,16
32646.153846153848,47
32653.846153846156,58
32661.53846153846,56
32669.23076923077,58
32676.923076923078,54
32684.615384615387,47
32692.30769230769,32
32700.0,25
32707.69230769231,30
32715.384615384617,35
32723.076923076926,32
32730.76923076923,30
32738.46153846154,28
32746.153846153848,23
32753.846153846156,23
32761.53846153846,25
32769.23076923077,25
32776.92307692308,25
32784.61538461538,25
32792.307692307695,25
32800.0,28
32807.69230769231,25
32815.38461538462,23
32823.07692307692,9
32830.769230769234,-77
32838.46153846154,-212
32846.153846153844,-174
32853.846153846156,179
32861.53846153846,902
32869.23076923077,1910
32876.92307692308,2384
32884.61538461538,1521
32892.307692307695,230
32900.0,-167
32907.69230769231,-16
32915.38461538462,-89
32923.07692307692,-197
32930.769230769234,-153
32938.46153846154,-146
32946.153846153844,-171
32953.846153846156,-148
32961.53846153846,-129
32969.23076923077,-129
32976.92307692308,-117
32984.61538461538,-101
32992.307692307695,-91
33000.0,-82
33007.69230769231,-70
33015.38461538462,-61
33023.07692307692,-54
33030.769230769234,-40
33038.46153846154,-25
33046.153846153844,-14
33053.846153846156,4
33061.53846153846,23
33069.23076923077,42
33076.92307692308,68
33084.61538461538,98
33092.307692307695,129
33100.0,160
33107.69230769231,186
33115.38461538462,212
33123.07692307692,226
33130.769230769234,228
33138.46153846154,200
33146.153846153844,146
33153.846153846156,75
33161.53846153846,7
33169.23076923077,-51
33176.92307692308,-94
33184.61538461538,-120
33192.307692307695,-141
33200.0,-153
33207.69230769231,-155
33215.38461538462,-153
33223.07692307692,-148
33230.769230769234,-141
33238.46153846154,-131
33246.153846153844,-124
33253.846153846156,-117
33261.53846153846,-108
33269.23076923077,-98
33276.92307692308,-89
33284.61538461538,-82
33292.307692307695,-75
33300.0,-70
33307.69230769231,-65
33315.38461538462,-58
33323.07692307692,-56
33330.769230769234,-54
33338.46153846154,-56
33346.153846153844,-54
33353.846153846156,-49
33361.53846153846,-47
33369.23076923077,-47
33376.92307692308,-44
33384.61538461538,-44
33392.307692307695,-44
33400.0,-42
33407.69230769231,-40
33415.38461538462,-40
33423.07692307692,-35
33430.769230769234,-30
33438.46153846154,-30
33446.153846153844,-30
33453.846153846156,-28
33461.53846153846,-25
33469.23076923077,-21
33476.92307692308,-21
33484.61538461538,-21
33492.307692307695,-18
33500.0,-11
33507.69230769231,-7
33515.38461538462,-7
33523.07692307692,-4
33530.769230769234,-2
33538.46153846154,-2
33546.153846153844,2
33553.846153846156,4
33561.53846153846,4
33569.23076923077,4
33576.92307692308,9
33584.61538461538,14
33592.307692307695,14
33600.0,14
33607.69230769231,14
33615.38461538462,14
33623.07692307692,11
33630.769230769234,14
33638.46153846154,16
33646.153846153844,11
33653.846153846156,9
33661.53846153846,14
33669.23076923077,18
33676.92307692308,14
33684.61538461538,11
33692.307692307695,14
33700.0,14
33707.69230769231,9
33715.38461538462,11
33723.07692307692,14
33730.769230769234,11
33738.46153846154,11
33746.153846153844,11
33753.846153846156,2
33761.53846153846,2
33769.23076923077,4
33776.92307692308,-4
33784.61538461538,-2
33792.307692307695,28
33800.0,49
33807.69230769231,54
33815.38461538462,51
33823.07692307692,47
33830.769230769234,37
33838.46153846154,18
33846.153846153844,7
33853.846153846156,11
33861.53846153846,18
33869.23076923077,21
33876.92307692308,23
33884.61538461538,18
33892.307692307695,9
33900.0,7
33907.69230769231,11
33915.38461538462,16
33923.07692307692,16
33930.769230769234,9
33938.46153846154,7
33946.153846153844,14
33953.846153846156,21
33961.53846153846,11
33969.23076923077,-30
33976.92307692308,-153
33984.61538461538,-245
33992.307692307695,-58
34000.0,492
34007.69230769231,1420
34015.38461538462,2297
34023.07692307692,2073
34030.769230769234,739
34038.46153846154,-164
34046.153846153844,-96
34053.846153846156,-23
34061.53846153846,-195
34069.23076923077,-200
34076.92307692308,-143
34084.61538461538,-176
34092.307692307695,-181
34100.0,-155
34107.69230769231,-153
34115.38461538462,-148
34123.07692307692,-131
34130.769230769234,-120
34138.46153846154,-106
34146.153846153844,-91
34153.846153846156,-82
34161.53846153846,-73
34169.23076923077,-68
34176.92307692308,-61
34184.61538461538,-42
34192.307692307695,-21
34200.0,-7
34207.69230769231,11
34215.38461538462,40
34223.07692307692,73
34230.769230769234,106
34238.46153846154,141
34246.153846153844,176
34253.846153846156,202
34261.53846153846,219
34269.23076923077,235
34276.92307692308,237
34284.61538461538,204
34292.307692307695,139
34300.0,61
34307.69230769231,-9
34315.38461538462,-63
34323.07692307692,-101
34330.769230769234,-131
34338.46153846154,-160
34346.153846153844,-171
34353.846153846156,-174
34361.53846153846,-171
34369.23076923077,-155
34376.92307692308,-141
34384.61538461538,-134
34392.307692307695,-131
34400.0,-134
34407.69230769231,-122
34415.38461538462,-108
34423.07692307692,-101
34430.769230769234,-94
34438.46153846154,-82
34446.153846153844,-82
34453.846153846156,-89
34461.53846153846,-80
34469.23076923077,-75
34476.92307692308,-80
34484.61538461538,-65
34492.307692307695,-56
34500.0,-65
34507.69230769231,-63
34515.38461538462,-56
34523.07692307692,-61
34530.769230769234,-58
34538.46153846154,-58
34546.153846153844,-56
34553.846153846156,-49
34561.53846153846,-44
34569.23076923077,-44
34576.92307692308,-42
34584.61538461538,-37
34592.307692307695,-35
34600.0,-40
34607.69230769231,-35
34615.38461538462,-25
34623.07692307692,-18
34630.769230769234,-23
34638.46153846154,-25
34646.153846153844,-18
34653.846153846156,-14
34661.53846153846,-11
34669.23076923077,-7
34676.92307692308,-9
34684.61538461538,-11
34692.307692307695,-14
34700.0,-16
34707.69230769231,2
34715.38461538462,23
34723.07692307692,28
34730.769230769234,42
34738.46153846154,40
34746.153846153844,21
34753.846153846156,21
34761.53846153846,14
34769.23076923077,-4
34776.92307692308,2
34784.61538461538,7
34792.307692307695,0
34800.0,7
34807.69230769231,9
34815.38461538462,-7
34823.07692307692,-9
34830.769230769234,-2
34838.46153846154,-2
34846.153846153844,2
34853.846153846156,0
34861.53846153846,-9
34869.23076923077,-18
34876.92307692308,-54
34884.61538461538,-176
34892.307692307695,-282
34900.0,-113
34907.69230769231,461
34915.38461538462,1430
34923.07692307692,2363
34930.769230769234,2176
34938.46153846154,765
34946.153846153844,-209
34953.846153846156,-108
34961.53846153846,-11
34969.23076923077,-204
34976.92307692308,-212
34984.61538461538,-148
34992.307692307695,-188
35000.0,-197
35007.69230769231,-162
35015.38461538462,-153
35023.07692307692,-150
35030.769230769234,-139
35038.46153846154,-127
35046.153846153844,-117
35053.846153846156,-108
35061.53846153846,-96
35069.23076923077,-82
35076.92307692308,-73
35084.61538461538,-63
35092.307692307695,-49
35100.0,-32
35107.69230769231,-11
35115.38461538462,14
35123.07692307692,42
35130.769230769234,73
35138.46153846154,108
35146.153846153844,146
35153.846153846156,179
35161.53846153846,209
35169.23076923077,233
35176.92307692308,237
35184.61538461538,212
35192.307692307695,155
35200.0,80
35207.69230769231,9
35215.38461538462,-51
35223.07692307692,-106
35230.769230769234,-146
35238.46153846154,-167
35246.153846153844,-176
35253.846153846156,-176
35261.53846153846,-174
35269.23076923077,-171
35276.92307692308,-169
35284.61538461538,-162
35292.307692307695,-150
35300.0,-136
35307.69230769231,-129
35315.38461538462,-124
35323.07692307692,-120
35330.769230769234,-113
35338.46153846154,-103
35346.153846153844,-94
35353.846153846156,-89
35361.53846153846,-84
35369.23076923077,-80
35376.92307692308,-77
35384.61538461538,-75
35392.307692307695,-68
35400.0,-63
35407.69230769231,-61
35415.38461538462,-61
35423.07692307692,-61
35430.769230769234,-54
35438.46153846154,-49
35446.153846153844,-49
35453.846153846156,-44
35461.53846153846,-42
35469.23076923077,-44
35476.92307692308,-37
35484.61538461538,-30
35492.307692307695,-28
35500.0,-28
35507.69230769231,-23
35515.38461538462,-21
35523.07692307692,-18
35530.769230769234,-16
35538.46153846154,-14
35546.153846153844,-14
35553.846153846156,-14
35561.53846153846,-14
35569.23076923077,-18
35576.92307692308,-25
35584.61538461538,-21
35592.307692307695,2
35600.0,28
35607.69230769231,40
35615.38461538462,44
35623.07692307692,42
35630.769230769234,35
35638.46153846154,25
35646.153846153844,11
35653.846153846156,11
35661.53846153846,21
35669.23076923077,23
35676.92307692308,18
35684.61538461538,16
35692.307692307695,16
35700.0,14
35707.69230769231,16
35715.38461538462,16
35723.07692307692,18
35730.769230769234,21
35738.46153846154,21
35746.153846153844,18
35753.846153846156,14
35761.53846153846,-42
35769.23076923077,-176
35776.92307692308,-233
35784.61538461538,11
35792.307692307695,640
35800.0,1653
35807.69230769231,2469
35815.38461538462,2009
35823.07692307692,596
35830.769230769234,-167
35838.46153846154,-56
35846.153846153844,-47
35853.846153846156,-202
35861.53846153846,-183
35869.23076923077,-150
35876.92307692308,-188
35884.61538461538,-181
35892.307692307695,-148
35900.0,-146
35907.69230769231,-141
35915.38461538462,-120
35923.07692307692,-110
35930.769230769234,-101
35938.46153846154,-87
35946.153846153844,-75
35953.846153846156,-65
35961.53846153846,-51
35969.23076923077,-37
35976.92307692308,-25
35984.61538461538,-7
35992.307692307695,14
36000.0,35
36007.69230769231,61
36015.38461538462,94
36023.07692307692,131
36030.769230769234,167
36038.46153846154,197
36046.153846153844,226
36053.846153846156,242
36061.53846153846,240
36069.23076923077,207
36076.92307692308,146
36084.61538461538,73
36092.307692307695,2
36100.0,-56
36107.69230769231,-103
36115.38461538462,-131
36123.07692307692,-148
36130.769230769234,-160
36138.46153846154,-162
36146.153846153844,-160
36153.846153846156,-155
36161.53846153846,-150
36169.23076923077,-141
36176.92307692308,-131
36184.61538461538,-124
36192.307692307695,-117
36200.0,-110
36207.69230769231,-103
36215.38461538462,-94
36223.07692307692,-84
36230.769230769234,-80
36238.46153846154,-73
36246.153846153844,-63
36253.846153846156,-58
36261.53846153846,-56
36269.23076923077,-51
36276.92307692308,-49
36284.61538461538,-44
36292.307692307695,-44
36300.0,-42
36307.69230769231,-40
36315.38461538462,-40
36323.07692307692,-40
36330.769230769234,-37
36338.46153846154,-35
36346.153846153844,-35
36353.846153846156,-35
36361.53846153846,-32
36369.23076923077,-30
36376.92307692308,-28
36384.61538461538,-30
36392.307692307695,-30
36400.0,-25
36407.69230769231,-23
36415.38461538462,-23
36423.07692307692,-21
36430.769230769234,-16
36438.46153846154,-16
36446.153846153844,-14
36453.846153846156,-11
36461.53846153846,-11
36469.23076923077,-16
36476.92307692308,-21
36484.61538461538,-18
36492.307692307695,0
36500.0,28
36507.69230769231,44
36515.38461538462,47
36523.07692307692,44
36530.769230769234,37
36538.46153846154,25
36546.153846153844,11
36553.846153846156,7
36561.53846153846,18
36569.23076923077,21
36576.92307692308,14
36584.61538461538,14
36592.307692307695,11
36600.0,9
36607.69230769231,7
36615.38461538462,9
36623.07692307692,7
36630.769230769234,4
36638.46153846154,4
36646.153846153844,4
36653.846153846156,4
36661.53846153846,0
36669.23076923077,-42
36676.92307692308,-162
36684.61538461538,-245
36692.307692307695,-73
36700.0,442
36707.69230769231,1342
36715.38461538462,2242
36723.07692307692,2080
36730.769230769234,779
36738.46153846154,-146
36746.153846153844,-122
36753.846153846156,-54
36761.53846153846,-204
36769.23076923077,-216
36776.92307692308,-169
36784.61538461538,-197
36792.307692307695,-200
36800.0,-169
36807.69230769231,-169
36815.38461538462,-167
36823.07692307692,-146
36830.769230769234,-134
36838.46153846154,-131
36846.153846153844,-120
36853.846153846156,-108
36861.53846153846,-98
36869.23076923077,-84
36876.92307692308,-73
36884.61538461538,-63
36892.307692307695,-51
36900.0,-35
36907.69230769231,-9
36915.38461538462,18
36923.07692307692,47
36930.769230769234,80
36938.46153846154,110
36946.153846153844,139
36953.846153846156,164
36961.53846153846,183
36969.23076923077,186
36976.92307692308,164
36984.61538461538,113
36992.307692307695,42
37000.0,-23
37007.69230769231,-80
37015.38461538462,-124
37023.07692307692,-157
37030.769230769234,-176
37038.46153846154,-186
37046.153846153844,-188
37053.846153846156,-183
37061.53846153846,-179
37069.23076923077,-171
37076.92307692308,-164
37084.61538461538,-162
37092.307692307695,-153
37100.0,-134
37107.69230769231,-122
37115.38461538462,-115
37123.07692307692,-108
37130.769230769234,-101
37138.46153846154,-94
37146.153846153844,-82
37153.846153846156,-77
37161.53846153846,-75
37169.23076923077,-75
37176.92307692308,-73
37184.61538461538,-68
37192.307692307695,-65
37200.0,-63
37207.69230769231,-61
37215.38461538462,-63
37223.07692307692,-65
37230.769230769234,-61
37238.46153846154,-56
37246.153846153844,-56
37253.846153846156,-51
37261.53846153846,-51
37269.23076923077,-51
37276.92307692308,-49
37284.61538461538,-44
37292.307692307695,-44
37300.0,-40
37307.69230769231,-35
37315.38461538462,-35
37323.07692307692,-35
37330.769230769234,-32
37338.46153846154,-28
37346.153846153844,-25
37353.846153846156,-25
37361.53846153846,-21
37369.23076923077,-16
37376.92307692308,-14
37384.61538461538,-14
37392.307692307695,-16
37400.0,-14
37407.69230769231,-2
37415.38461538462,4
37423.07692307692,2
37430.769230769234,0
37438.46153846154,-2
37446.153846153844,-7
37453.846153846156,-9
37461.53846153846,4
37469.23076923077,28
37476.92307692308,42
37484.61538461538,44
37492.307692307695,49
37500.0,47
37507.69230769231,32
37515.38461538462,18
37523.07692307692,11
37530.769230769234,16
37538.46153846154,23
37546.153846153844,21
37553.846153846156,18
37561.53846153846,14
37569.23076923077,14
37576.92307692308,11
37584.61538461538,9
37592.307692307695,9
37600.0,16
37607.69230769231,18
37615.38461538462,14
37623.07692307692,14
37630.769230769234,16
37638.46153846154,16
37646.153846153844,-7
37653.846153846156,-106
37661.53846153846,-228
37669.23076923077,-143
37676.92307692308,287
37684.61538461538,1100
37692.307692307695,2094
37700.0,2318
37707.69230769231,1208
37715.38461538462,11
37723.07692307692,-164
37730.769230769234,-7
37738.46153846154,-136
37746.153846153844,-209
37753.846153846156,-143
37761.53846153846,-155
37769.23076923077,-181
37776.92307692308,-148
37784.61538461538,-127
37792.307692307695,-134
37800.0,-127
37807.69230769231,-108
37815.38461538462,-101
37823.07692307692,-89
37830.769230769234,-77
37838.46153846154,-68
37846.153846153844,-56
37853.846153846156,-47
37861.53846153846,-35
37869.23076923077,-14
37876.92307692308,2
37884.61538461538,16
37892.307692307695,42
37900.0,77
37907.69230769231,108
37915.38461538462,141
37923.07692307692,179
37930.769230769234,212
37938.46153846154,230
37946.153846153844,245
37953.846153846156,245
37961.53846153846,207
37969.23076923077,139
37976.92307692308,68
37984.61538461538,4
37992.307692307695,-49
38000.0,-89
38007.69230769231,-120
38015.38461538462,-141
38023.07692307692,-148
38030.769230769234,-143
38038.46153846154,-134
38046.153846153844,-131
38053.846153846156,-131
38061.53846153846,-120
38069.23076923077,-108
38076.92307692308,-103
38084.61538461538,-98
38092.307692307695,-87
38100.0,-77
38107.69230769231,-68
38115.38461538462,-63
38123.07692307692,-65
38130.769230769234,-61
38138.46153846154,-47
38146.153846153844,-49
38153.846153846156,-58
38161.53846153846,-44
38169.23076923077,-37
38176.92307692308,-44
38184.61538461538,-37
38192.307692307695,-28
38200.0,-37
38207.69230769231,-44
38215.38461538462,-37
38223.07692307692,-30
38230.769230769234,-30
38238.46153846154,-30
38246.153846153844,-25
38253.846153846156,-23
38261.53846153846,-23
38269.23076923077,-21
38276.92307692308,-14
38284.61538461538,-14
38292.307692307695,-11
38300.0,-11
38307.69230769231,-11
38315.38461538462,-7
38323.07692307692,0
38330.769230769234,4
38338.46153846154,4
38346.153846153844,2
38353.846153846156,-2
38361.53846153846,-2
38369.23076923077,9
38376.92307692308,30
38384.61538461538,49
38392.307692307695,54
38400.0,49
38407.69230769231,42
38415.38461538462,35
38423.07692307692,28
38430.769230769234,23
38438.46153846154,25
38446.153846153844,35
38453.846153846156,32
38461.53846153846,23
38469.23076923077,23
38476.92307692308,21
38484.61538461538,16
38492.307692307695,14
38500.0,16
38507.69230769231,18
38515.38461538462,16
38523.07692307692,11
38530.769230769234,14
38538.46153846154,14
38546.153846153844,-4
38553.846153846156,-108
38561.53846153846,-252
38569.23076923077,-179
38576.92307692308,275
38584.61538461538,1114
38592.307692307695,2141
38600.0,2407
38607.69230769231,1248
38615.38461538462,-30
38623.07692307692,-179
38630.769230769234,18
38638.46153846154,-136
38646.153846153844,-221
38653.846153846156,-143
38661.53846153846,-162
38669.23076923077,-190
38676.92307692308,-153
38684.61538461538,-134
38692.307692307695,-139
38700.0,-124
38707.69230769231,-108
38715.38461538462,-98
38723.07692307692,-89
38730.769230769234,-75
38738.46153846154,-65
38746.153846153844,-56
38753.846153846156,-44
38761.53846153846,-32
38769.23076923077,-18
38776.92307692308,-2
38784.61538461538,18
38792.307692307695,42
38800.0,73
38807.69230769231,108
38815.38461538462,143
38823.07692307692,174
38830.769230769234,202
38838.46153846154,226
38846.153846153844,237
38853.846153846156,223
38861.53846153846,176
38869.23076923077,108
38876.92307692308,37
38884.61538461538,-25
38892.307692307695,-77
38900.0,-120
38907.69230769231,-146
38915.38461538462,-153
38923.07692307692,-155
38930.769230769234,-157
38938.46153846154,-153
38946.153846153844,-141
38953.846153846156,-131
38961.53846153846,-124
38969.23076923077,-115
38976.92307692308,-106
38984.61538461538,-96
38992.307692307695,-84
39000.0,-77
39007.69230769231,-73
39015.38461538462,-68
39023.07692307692,-63
39030.769230769234,-56
39038.46153846154,-51
39046.153846153844,-49
39053.846153846156,-47
39061.53846153846,-44
39069.23076923077,-42
39076.92307692308,-40
39084.61538461538,-40
39092.307692307695,-37
39100.0,-35
39107.69230769231,-35
39115.38461538462,-35
39123.07692307692,-30
39130.769230769234,-23
39138.46153846154,-21
39146.153846153844,-18
39153.846153846156,-16
39161.53846153846,-14
39169.23076923077,-11
39176.92307692308,-9
39184.61538461538,-7
39192.307692307695,-2
39200.0,-2
39207.69230769231,-2
39215.38461538462,2
39223.07692307692,7
39230.769230769234,7
39238.46153846154,4
39246.153846153844,-2
39253.846153846156,-4
39261.53846153846,4
39269.23076923077,30
39276.92307692308,56
39284.61538461538,65
39292.307692307695,58
39300.0,54
39307.69230769231,54
39315.38461538462,42
39323.07692307692,28
39330.769230769234,25
39338.46153846154,30
39346.153846153844,30
39353.846153846156,28
39361.53846153846,25
39369.23076923077,23
39376.92307692308,18
39384.61538461538,14
39392.307692307695,16
39400.0,21
39407.69230769231,16
39415.38461538462,14
39423.07692307692,18
39430.769230769234,18
39438.46153846154,-4
39446.153846153844,-98
39453.846153846156,-221
39461.53846153846,-155
39469.23076923077,252
39476.92307692308,1050
39484.61538461538,2075
39492.307692307695,2384
39500.0,1328
39507.69230769231,82
39515.38461538462,-164
39523.07692307692,-18
39530.769230769234,-134
39538.46153846154,-214
39546.153846153844,-157
39553.846153846156,-167
39561.53846153846,-193
39569.23076923077,-167
39576.92307692308,-148
39584.61538461538,-150
39592.307692307695,-136
39600.0,-122
39607.69230769231,-115
39615.38461538462,-103
39623.07692307692,-91
39630.769230769234,-80
39638.46153846154,-68
39646.153846153844,-54
39653.846153846156,-44
39661.53846153846,-30
39669.23076923077,-9
39676.92307692308,11
39684.61538461538,35
39692.307692307695,65
39700.0,96
39707.69230769231,127
39715.38461538462,157
39723.07692307692,186
39730.769230769234,207
39738.46153846154,214
39746.153846153844,202
39753.846153846156,157
39761.53846153846,89
39769.23076923077,21
39776.92307692308,-40
39784.61538461538,-91
39792.307692307695,-129
39800.0,-150
39807.69230769231,-164
39815.38461538462,-169
39823.07692307692,-167
39830.769230769234,-162
39838.46153846154,-155
39846.153846153844,-150
39853.846153846156,-143
39861.53846153846,-134
39869.23076923077,-124
39876.92307692308,-117
39884.61538461538,-110
39892.307692307695,-98
39900.0,-91
39907.69230769231,-87
39915.38461538462,-89
39923.07692307692,-87
39930.769230769234,-75
39938.46153846154,-65
39946.153846153844,-65
39953.846153846156,-63
39961.53846153846,-61
39969.23076923077,-61
39976.92307692308,-58
39984.61538461538,-54
39992.307692307695,-51
40000.0,-49
40007.69230769231,-47
40015.38461538462,-44
40023.07692307692,-42
40030.769230769234,-40
40038.46153846154,-40
40046.153846153844,-35
40053.846153846156,-32
40061.53846153846,-30
40069.23076923077,-28
40076.92307692308,-25
40084.61538461538,-23
40092.307692307695,-21
40100.0,-18
40107.69230769231,-16
40115.38461538462,-14
40123.07692307692,-11
40130.769230769234,-9
40138.46153846154,-9
40146.153846153844,-7
40153.846153846156,-7
40161.53846153846,-11
40169.23076923077,-11
40176.92307692308,0
40184.61538461538,21
40192.307692307695,47
40200.0,58
40207.69230769231,51
40215.38461538462,47
40223.07692307692,47
40230.769230769234,32
40238.46153846154,18
40246.153846153844,23
40253.846153846156,30
40261.53846153846,28
40269.23076923077,23
40276.92307692308,23
40284.61538461538,21
40292.307692307695,18
40300.0,21
40307.69230769231,21
40315.38461538462,21
40323.07692307692,18
40330.769230769234,18
40338.46153846154,18
40346.153846153844,18
40353.846153846156,16
40361.53846153846,-7
40369.23076923077,-106
40376.92307692308,-219
40384.61538461538,-124
40392.307692307695,303
40400.0,1107
40407.69230769231,2077
40415.38461538462,2264
40423.07692307692,1156
40430.769230769234,2
40438.46153846154,-155
40446.153846153844,-16
40453.846153846156,-148
40461.53846153846,-216
40469.23076923077,-155
40476.92307692308,-162
40484.61538461538,-181
40492.307692307695,-153
40500.0,-139
40507.69230769231,-139
40515.38461538462,-122
40523.07692307692,-106
40530.769230769234,-96
40538.46153846154,-84
40546.153846153844,-75
40553.846153846156,-65
40561.53846153846,-54
40569.23076923077,-37
40576.92307692308,-23
40584.61538461538,-9
40592.307692307695,4
40600.0,28
40607.69230769231,54
40615.38461538462,80
40623.07692307692,110
40630.769230769234,141
40638.46153846154,169
40646.153846153844,193
40653.846153846156,214
40661.53846153846,223
40669.23076923077,207
40676.92307692308,160
40684.61538461538,94
40692.307692307695,28
40700.0,-30
40707.69230769231,-82
40715.38461538462,-120
40723.07692307692,-141
40730.769230769234,-155
40738.46153846154,-157
40746.153846153844,-155
40753.846153846156,-148
40761.53846153846,-143
40769.23076923077,-136
40776.92307692308,-129
40784.61538461538,-117
40792.307692307695,-106
40800.0,-96
40807.69230769231,-89
40815.38461538462,-82
40823.07692307692,-77
40830.769230769234,-68
40838.46153846154,-63
40846.153846153844,-61
40853.846153846156,-56
40861.53846153846,-51
40869.23076923077,-51
40876.92307692308,-47
40884.61538461538,-44
40892.307692307695,-44
40900.0,-42
40907.69230769231,-42
40915.38461538462,-42
40923.07692307692,-42
40930.769230769234,-40
40938.46153846154,-40
40946.153846153844,-37
40953.846153846156,-35
40961.53846153846,-32
40969.23076923077,-30
40976.92307692308,-28
40984.61538461538,-25
40992.307692307695,-23
41000.0,-21
41007.69230769231,-16
41015.38461538462,-14
41023.07692307692,-9
41030.769230769234,-7
41038.46153846154,-4
41046.153846153844,-2
41053.846153846156,0
41061.53846153846,4
41069.23076923077,11
41076.92307692308,16
41084.61538461538,16
41092.307692307695,11
41100.0,11
41107.69230769231,11
41115.38461538462,11
41123.07692307692,16
41130.769230769234,35
41138.46153846154,61
41146.153846153844,73
41153.846153846156,68
41161.53846153846,61
41169.23076923077,56
41176.92307692308,44
41184.61538461538,28
41192.307692307695,23
41200.0,28
41207.69230769231,30
41215.38461538462,23
41223.07692307692,21
41230.769230769234,18
41238.46153846154,14
41246.153846153844,14
41253.846153846156,14
41261.53846153846,14
41269.23076923077,11
41276.92307692308,11
41284.61538461538,11
41292.307692307695,14
41300.0,16
41307.69230769231,0
41315.38461538462,-77
41323.07692307692,-207
41330.769230769234,-179
41338.46153846154,174
41346.153846153844,902
41353.846153846156,1905
41361.53846153846,2360
41369.23076923077,1460
41376.92307692308,171
41384.61538461538,-174
41392.307692307695,-11
41400.0,-101
41407.69230769231,-202
41415.38461538462,-150
41423.07692307692,-148
41430.769230769234,-181
41438.46153846154,-155
41446.153846153844,-134
41453.846153846156,-134
41461.53846153846,-122
41469.23076923077,-106
41476.92307692308,-98
41484.61538461538,-89
41492.307692307695,-75
41500.0,-68
41507.69230769231,-58
41515.38461538462,-47
41523.07692307692,-32
41530.769230769234,-18
41538.46153846154,-7
41546.153846153844,11
41553.846153846156,35
41561.53846153846,63
41569.23076923077,91
41576.92307692308,122
41584.61538461538,150
41592.307692307695,176
41600.0,200
41607.69230769231,212
41615.38461538462,204
41623.07692307692,171
41630.769230769234,110
41638.46153846154,40
41646.153846153844,-21
41653.846153846156,-68
41661.53846153846,-106
41669.23076923077,-131
41676.92307692308,-148
41684.61538461538,-153
41692.307692307695,-148
41700.0,-143
41707.69230769231,-136
41715.38461538462,-127
41723.07692307692,-117
41730.769230769234,-110
41738.46153846154,-101
41746.153846153844,-91
41753.846153846156,-82
41761.53846153846,-75
41769.23076923077,-68
41776.92307692308,-61
41784.61538461538,-58
41792.307692307695,-54
41800.0,-49
41807.69230769231,-47
41815.38461538462,-47
41823.07692307692,-44
41830.769230769234,-40
41838.46153846154,-40
41846.153846153844,-42
41853.846153846156,-42
41861.53846153846,-42
41869.23076923077,-42
41876.92307692308,-40
41884.61538461538,-37
41892.307692307695,-37
41900.0,-35
41907.69230769231,-32
41915.38461538462,-28
41923.07692307692,-25
41930.769230769234,-25
41938.46153846154,-25
41946.153846153844,-23
41953.846153846156,-16
41961.53846153846,-11
41969.23076923077,-9
41976.92307692308,-7
41984.61538461538,-4
41992.307692307695,0
42000.0,2
42007.69230769231,7
42015.38461538462,9
42023.07692307692,11
42030.769230769234,14
42038.46153846154,9
42046.153846153844,9
42053.846153846156,16
42061.53846153846,30
42069.23076923077,51
42076.92307692308,73
42084.61538461538,75
42092.307692307695,65
42100.0,63
42107.69230769231,61
42115.38461538462,47
42123.07692307692,35
42130.769230769234,35
42138.46153846154,32
42146.153846153844,35
42153.846153846156,32
42161.53846153846,28
42169.23076923077,23
42176.92307692308,18
42184.61538461538,21
42192.307692307695,23
42200.0,23
42207.69230769231,23
42215.38461538462,23
42223.07692307692,23
42230.769230769234,21
42238.46153846154,-14
42246.153846153844,-131
42253.846153846156,-214
42261.53846153846,-42
42269.23076923077,478
42276.92307692308,1375
42284.61538461538,2242
42292.307692307695,2030
42300.0,727
42307.69230769231,-141
42315.38461538462,-84
42323.07692307692,-28
42330.769230769234,-176
42338.46153846154,-176
42346.153846153844,-136
42353.846153846156,-169
42361.53846153846,-167
42369.23076923077,-134
42376.92307692308,-131
42384.61538461538,-127
42392.307692307695,-113
42400.0,-101
42407.69230769231,-91
42415.38461538462,-80
42423.07692307692,-68
42430.769230769234,-58
42438.46153846154,-49
42446.153846153844,-37
42453.846153846156,-23
42461.53846153846,-7
42469.23076923077,11
42476.92307692308,32
42484.61538461538,58
42492.307692307695,82
42500.0,110
42507.69230769231,143
42515.38461538462,174
42523.07692307692,195
42530.769230769234,212
42538.46153846154,214
42546.153846153844,190
42553.846153846156,141
42561.53846153846,75
42569.23076923077,9
42576.92307692308,-49
42584.61538461538,-96
42592.307692307695,-127
42600.0,-146
42607.69230769231,-155
42615.38461538462,-160
42623.07692307692,-160
42630.769230769234,-153
42638.46153846154,-143
42646.153846153844,-136
42653.846153846156,-129
42661.53846153846,-124
42669.23076923077,-117
42676.92307692308,-106
42684.61538461538,-98
42692.307692307695,-94
42700.0,-89
42707.69230769231,-84
42715.38461538462,-77
42723.07692307692,-73
42730.769230769234,-70
42738.46153846154,-68
42746.153846153844,-68
42753.846153846156,-73
42761.53846153846,-70
42769.23076923077,-63
42776.92307692308,-61
42784.61538461538,-63
42792.307692307695,-61
42800.0,-58
42807.69230769231,-56
42815.38461538462,-56
42823.07692307692,-56
42830.769230769234,-47
42838.46153846154,-42
