timestamp,ecg
0.0,-2479
7.6923076923076925,-2477
15.384615384615385,-2484
23.076923076923077,-2498
30.76923076923077,-2500
38.46153846153846,-2472
46.15384615384615,-2432
53.84615384615385,-2425
61.53846153846154,-2460
69.23076923076923,-2484
76.92307692307692,-2285
84.61538461538461,-1680
92.3076923076923,-918
100.0,-590
107.6923076923077,-1108
115.38461538461539,-2163
123.07692307692308,-2763
130.76923076923077,-2596
138.46153846153845,-2395
146.15384615384616,-2381
153.84615384615384,-2287
161.53846153846155,-2217
169.23076923076923,-2219
176.92307692307693,-2184
184.6153846153846,-2130
192.30769230769232,-2104
200.0,-2088
207.6923076923077,-2069
215.3846153846154,-2036
223.0769230769231,-2022
230.76923076923077,-2057
238.46153846153848,-2057
246.15384615384616,-1982
253.84615384615384,-1933
261.53846153846155,-1907
269.2307692307692,-1858
276.9230769230769,-1823
284.61538461538464,-1795
292.3076923076923,-1757
300.0,-1729
307.6923076923077,-1717
315.3846153846154,-1717
323.0769230769231,-1720
330.7692307692308,-1725
338.46153846153845,-1755
346.1538461538462,-1792
353.84615384615387,-1821
361.53846153846155,-1860
369.2307692307692,-1910
376.9230769230769,-1938
384.61538461538464,-1964
392.3076923076923,-1982
400.0,-1968
407.6923076923077,-1942
415.3846153846154,-1928
423.0769230769231,-1919
430.7692307692308,-1903
438.46153846153845,-1889
446.1538461538462,-1867
453.84615384615387,-1837
461.53846153846155,-1804
469.2307692307692,-1781
476.92307692307696,-1767
484.61538461538464,-1760
492.3076923076923,-1743
500.0,-1729
507.6923076923077,-1722
515.3846153846154,-1708
523.0769230769231,-1715
530.7692307692308,-1729
538.4615384615385,-1703
546.1538461538462,-1666
553.8461538461538,-1657
561.5384615384615,-1654
569.2307692307693,-1661
576.9230769230769,-1673
584.6153846153846,-1647
592.3076923076924,-1610
600.0,-1598
607.6923076923077,-1593
615.3846153846154,-1598
623.0769230769231,-1603
630.7692307692308,-1572
638.4615384615385,-1539
646.1538461538462,-1532
653.8461538461538,-1549
661.5384615384615,-1624
669.2307692307693,-1668
676.9230769230769,-1593
684.6153846153846,-1528
692.3076923076924,-1504
700.0,-1446
707.6923076923077,-1427
715.3846153846154,-1457
723.0769230769231,-1448
730.7692307692308,-1425
738.4615384615385,-1460
746.1538461538462,-1502
753.8461538461538,-1485
761.5384615384615,-1462
769.2307692307693,-1478
776.9230769230769,-1485
784.6153846153846,-1296
792.3076923076924,-712
800.0,21
807.6923076923077,318
815.3846153846154,-208
823.0769230769231,-1228
830.7692307692308,-1795
838.4615384615385,-1652
846.1538461538462,-1495
853.8461538461539,-1492
861.5384615384615,-1375
869.2307692307693,-1284
876.9230769230769,-1303
884.6153846153846,-1291
892.3076923076924,-1258
900.0,-1244
907.6923076923077,-1216
915.3846153846154,-1174
923.0769230769231,-1160
930.7692307692308,-1157
938.4615384615385,-1143
946.1538461538462,-1113
953.8461538461539,-1078
961.5384615384615,-1045
969.2307692307693,-1021
976.9230769230769,-1003
984.6153846153846,-984
992.3076923076924,-953
1000.0,-911
1007.6923076923077,-878
1015.3846153846154,-864
1023.0769230769231,-867
1030.7692307692307,-876
1038.4615384615386,-883
1046.1538461538462,-902
1053.8461538461538,-935
1061.5384615384617,-984
1069.2307692307693,-1050
1076.923076923077,-1108
1084.6153846153848,-1146
1092.3076923076924,-1155
1100.0,-1150
1107.6923076923076,-1160
1115.3846153846155,-1169
1123.076923076923,-1162
1130.7692307692307,-1148
1138.4615384615386,-1127
1146.1538461538462,-1103
1153.8461538461538,-1099
1161.5384615384617,-1103
1169.2307692307693,-1103
1176.923076923077,-1087
1184.6153846153848,-1057
1192.3076923076924,-1042
1200.0,-1092
1207.6923076923076,-1148
1215.3846153846155,-1113
1223.076923076923,-1059
1230.7692307692307,-1054
1238.4615384615386,-1071
1246.1538461538462,-1103
1253.8461538461538,-1099
1261.5384615384617,-1059
1269.2307692307693,-1040
1276.923076923077,-1014
1284.6153846153848,-989
1292.3076923076924,-998
1300.0,-993
1307.6923076923076,-972
1315.3846153846155,-972
1323.076923076923,-965
1330.7692307692307,-949
1338.4615384615386,-953
1346.1538461538462,-956
1353.8461538461538,-942
1361.5384615384617,-935
1369.2307692307693,-928
1376.923076923077,-914
1384.6153846153848,-918
1392.3076923076924,-918
1400.0,-914
1407.6923076923076,-925
1415.3846153846155,-930
1423.076923076923,-925
1430.7692307692307,-918
1438.4615384615386,-864
1446.1538461538462,-817
1453.8461538461538,-832
1461.5384615384617,-846
1469.2307692307693,-855
1476.923076923077,-874
1484.6153846153848,-867
1492.3076923076924,-853
1500.0,-871
1507.6923076923076,-911
1515.3846153846155,-953
1523.076923076923,-897
1530.7692307692307,-503
1538.4615384615386,217
1546.1538461538462,796
1553.8461538461538,665
1561.5384615384617,-288
1569.2307692307693,-1253
1576.923076923077,-1347
1584.6153846153848,-1050
1592.3076923076924,-1045
1600.0,-1031
1607.6923076923076,-904
1615.3846153846155,-902
1623.076923076923,-921
1630.7692307692307,-874
1638.4615384615386,-864
1646.1538461538462,-874
1653.8461538461538,-848
1661.5384615384617,-820
1669.2307692307693,-810
1676.923076923077,-794
1684.6153846153848,-780
1692.3076923076924,-773
1700.0,-761
1707.6923076923078,-731
1715.3846153846155,-700
1723.076923076923,-684
1730.7692307692307,-660
1738.4615384615386,-632
1746.1538461538462,-632
1753.8461538461538,-642
1761.5384615384617,-616
1769.2307692307693,-592
1776.923076923077,-614
1784.6153846153848,-667
1792.3076923076924,-733
1800.0,-759
1807.6923076923078,-775
1815.3846153846155,-836
1823.076923076923,-900
1830.7692307692307,-930
1838.4615384615386,-942
1846.1538461538462,-944
1853.8461538461538,-932
1861.5384615384617,-925
1869.2307692307693,-925
1876.923076923077,-918
1884.6153846153848,-907
1892.3076923076924,-885
1900.0,-869
1907.6923076923078,-864
1915.3846153846155,-869
1923.076923076923,-864
1930.7692307692307,-853
1938.4615384615386,-834
1946.1538461538462,-825
1953.8461538461538,-825
1961.5384615384617,-829
1969.2307692307693,-836
1976.923076923077,-829
1984.6153846153848,-810
1992.3076923076924,-801
2000.0,-808
2007.6923076923078,-829
2015.3846153846155,-834
2023.076923076923,-817
2030.7692307692307,-803
2038.4615384615386,-796
2046.1538461538462,-801
2053.846153846154,-815
2061.5384615384614,-817
2069.2307692307695,-801
2076.923076923077,-789
2084.6153846153848,-785
2092.3076923076924,-792
2100.0,-810
2107.6923076923076,-815
2115.3846153846152,-794
2123.0769230769233,-787
2130.769230769231,-796
2138.4615384615386,-806
2146.153846153846,-822
2153.846153846154,-834
2161.5384615384614,-825
2169.2307692307695,-792
2176.923076923077,-742
2184.6153846153848,-726
2192.3076923076924,-754
2200.0,-775
2207.6923076923076,-771
2215.3846153846152,-764
2223.0769230769233,-761
2230.769230769231,-778
2238.4615384615386,-827
2246.153846153846,-895
2253.846153846154,-951
2261.5384615384614,-857
2269.2307692307695,-403
2276.923076923077,339
2284.6153846153848,848
2292.3076923076924,597
2300.0,-372
2307.6923076923076,-1249
2315.3846153846152,-1314
2323.0769230769233,-1061
2330.769230769231,-1057
2338.4615384615386,-1007
2346.153846153846,-850
2353.846153846154,-839
2361.5384615384614,-867
2369.2307692307695,-813
2376.923076923077,-794
2384.6153846153848,-799
2392.3076923076924,-754
2400.0,-719
2407.6923076923076,-717
2415.3846153846152,-712
2423.0769230769233,-703
2430.769230769231,-672
2438.4615384615386,-642
2446.153846153846,-618
2453.846153846154,-590
2461.5384615384614,-578
2469.2307692307695,-571
2476.923076923077,-525
2484.6153846153848,-471
2492.3076923076924,-452
2500.0,-447
2507.6923076923076,-454
2515.3846153846152,-473
2523.0769230769233,-487
2530.769230769231,-515
2538.4615384615386,-578
2546.153846153846,-651
2553.846153846154,-728
2561.5384615384614,-796
2569.2307692307695,-822
2576.923076923077,-825
2584.6153846153848,-843
2592.3076923076924,-862
2600.0,-871
2607.6923076923076,-874
2615.3846153846152,-860
2623.0769230769233,-848
2630.769230769231,-850
2638.4615384615386,-848
2646.153846153846,-850
2653.846153846154,-848
2661.5384615384614,-817
2669.2307692307695,-785
2676.923076923077,-778
2684.6153846153848,-796
2692.3076923076924,-810
2700.0,-799
2707.6923076923076,-778
2715.3846153846152,-771
2723.0769230769233,-778
2730.769230769231,-787
2738.4615384615386,-796
2746.153846153846,-808
2753.846153846154,-834
2761.5384615384614,-853
2769.2307692307695,-834
2776.923076923077,-817
2784.6153846153848,-829
2792.3076923076924,-829
2800.0,-822
2807.6923076923076,-813
2815.3846153846152,-801
2823.0769230769233,-789
2830.769230769231,-787
2838.4615384615386,-768
2846.153846153846,-731
2853.846153846154,-726
2861.5384615384614,-775
2869.2307692307695,-855
2876.923076923077,-871
2884.6153846153848,-825
2892.3076923076924,-806
2900.0,-810
2907.6923076923076,-810
2915.3846153846152,-839
2923.0769230769233,-895
2930.769230769231,-843
2938.4615384615386,-445
2946.153846153846,292
2953.846153846154,888
2961.5384615384614,757
2969.2307692307695,-166
2976.923076923077,-1096
2984.6153846153848,-1244
2992.3076923076924,-1007
3000.0,-986
3007.6923076923076,-967
3015.3846153846152,-839
3023.0769230769233,-813
3030.769230769231,-829
3038.4615384615386,-782
3046.153846153846,-766
3053.846153846154,-775
3061.5384615384614,-752
3069.2307692307695,-735
3076.923076923077,-726
3084.6153846153848,-700
3092.3076923076924,-684
3100.0,-679
3107.6923076923076,-656
3115.3846153846152,-623
3123.0769230769233,-597
3130.769230769231,-576
3138.4615384615386,-557
3146.153846153846,-520
3153.846153846154,-485
3161.5384615384614,-475
3169.2307692307695,-473
3176.923076923077,-464
3184.6153846153848,-466
3192.3076923076924,-494
3200.0,-548
3207.6923076923076,-614
3215.3846153846152,-672
3223.0769230769233,-733
3230.769230769231,-803
3238.4615384615386,-836
3246.153846153846,-832
3253.846153846154,-862
3261.5384615384614,-932
3269.2307692307695,-944
3276.923076923077,-876
3284.6153846153848,-841
3292.3076923076924,-864
3300.0,-855
3307.6923076923076,-817
3315.3846153846157,-820
3323.0769230769233,-829
3330.769230769231,-794
3338.4615384615386,-766
3346.153846153846,-778
3353.846153846154,-771
3361.5384615384614,-752
3369.2307692307695,-764
3376.923076923077,-771
3384.6153846153848,-747
3392.3076923076924,-735
3400.0,-789
3407.6923076923076,-848
3415.3846153846157,-832
3423.0769230769233,-799
3430.769230769231,-815
3438.4615384615386,-810
3446.153846153846,-766
3453.846153846154,-766
3461.5384615384614,-785
3469.2307692307695,-750
3476.923076923077,-724
3484.6153846153848,-733
3492.3076923076924,-735
3500.0,-747
3507.6923076923076,-750
3515.3846153846157,-712
3523.0769230769233,-691
3530.769230769231,-714
3538.4615384615386,-742
3546.153846153846,-745
3553.846153846154,-714
3561.5384615384614,-700
3569.2307692307695,-712
3576.923076923077,-721
3584.6153846153848,-740
3592.3076923076924,-738
3600.0,-696
3607.6923076923076,-656
3615.3846153846157,-635
3623.0769230769233,-644
3630.769230769231,-686
3638.4615384615386,-691
3646.153846153846,-660
3653.846153846154,-682
3661.5384615384614,-700
3669.2307692307695,-682
3676.923076923077,-689
3684.6153846153848,-752
3692.3076923076924,-799
3700.0,-672
3707.6923076923076,-253
3715.3846153846157,405
3723.0769230769233,935
3730.769230769231,761
3738.4615384615386,-203
3746.153846153846,-1078
3753.846153846154,-1155
3761.5384615384614,-984
3769.2307692307695,-1012
3776.923076923077,-914
3784.6153846153848,-750
3792.3076923076924,-766
3800.0,-782
3807.6923076923076,-735
3815.3846153846157,-740
3823.0769230769233,-738
3830.769230769231,-684
3838.4615384615386,-653
3846.153846153846,-660
3853.846153846154,-665
3861.5384615384614,-651
3869.2307692307695,-616
3876.923076923077,-576
3884.6153846153848,-576
3892.3076923076924,-578
3900.0,-546
3907.6923076923076,-515
3915.3846153846157,-487
3923.0769230769233,-450
3930.769230769231,-407
3938.4615384615386,-393
3946.153846153846,-414
3953.846153846154,-412
3961.5384615384614,-389
3969.2307692307695,-426
3976.923076923077,-494
3984.6153846153848,-562
3992.3076923076924,-679
4000.0,-771
4007.6923076923076,-752
4015.3846153846157,-738
4023.0769230769233,-780
4030.769230769231,-794
4038.4615384615386,-799
4046.153846153846,-813
4053.846153846154,-766
4061.5384615384614,-710
4069.2307692307695,-719
4076.923076923077,-742
4084.6153846153848,-747
4092.3076923076924,-733
4100.0,-721
4107.692307692308,-721
4115.384615384615,-705
4123.076923076923,-712
4130.7692307692305,-733
4138.461538461539,-710
4146.153846153847,-679
4153.846153846154,-672
4161.538461538462,-658
4169.2307692307695,-670
4176.923076923077,-698
4184.615384615385,-689
4192.307692307692,-660
4200.0,-658
4207.692307692308,-665
4215.384615384615,-672
4223.076923076923,-682
4230.7692307692305,-677
4238.461538461539,-660
4246.153846153847,-651
4253.846153846154,-651
4261.538461538462,-660
4269.2307692307695,-698
4276.923076923077,-726
4284.615384615385,-698
4292.307692307692,-660
4300.0,-672
4307.692307692308,-696
4315.384615384615,-696
4323.076923076923,-684
4330.7692307692305,-679
4338.461538461539,-672
4346.153846153847,-665
4353.846153846154,-672
4361.538461538462,-670
4369.2307692307695,-632
4376.923076923077,-600
4384.615384615385,-607
4392.307692307692,-621
4400.0,-642
4407.692307692308,-663
4415.384615384615,-658
4423.076923076923,-646
4430.7692307692305,-646
4438.461538461539,-665
4446.153846153847,-714
4453.846153846154,-750
4461.538461538462,-632
4469.2307692307695,-196
4476.923076923077,457
4484.615384615385,855
4492.307692307692,529
4500.0,-417
4507.692307692308,-1094
4515.384615384615,-1024
4523.076923076923,-855
4530.7692307692305,-876
4538.461538461539,-796
4546.153846153847,-705
4553.846153846154,-710
4561.538461538462,-700
4569.2307692307695,-705
4576.923076923077,-757
4584.615384615385,-733
4592.307692307692,-656
4600.0,-646
4607.692307692308,-639
4615.384615384615,-616
4623.076923076923,-658
4630.7692307692305,-686
4638.461538461539,-646
4646.153846153847,-595
4653.846153846154,-555
4661.538461538462,-506
4669.2307692307695,-482
4676.923076923077,-485
4684.615384615385,-452
4692.307692307692,-405
4700.0,-398
4707.692307692308,-407
4715.384615384615,-403
4723.076923076923,-410
4730.7692307692305,-438
4738.461538461539,-480
4746.153846153847,-543
4753.846153846154,-618
4761.538461538462,-684
4769.2307692307695,-700
4776.923076923077,-724
4784.615384615385,-794
4792.307692307692,-792
4800.0,-745
4807.692307692308,-752
4815.384615384615,-761
4823.076923076923,-735
4830.7692307692305,-712
4838.461538461539,-719
4846.153846153847,-731
4853.846153846154,-705
4861.538461538462,-686
4869.2307692307695,-698
4876.923076923077,-686
4884.615384615385,-660
4892.307692307692,-656
4900.0,-667
4907.692307692308,-665
4915.384615384615,-646
4923.076923076923,-644
4930.7692307692305,-656
4938.461538461539,-656
4946.153846153847,-644
4953.846153846154,-651
4961.538461538462,-651
4969.2307692307695,-637
4976.923076923077,-635
4984.615384615385,-646
4992.307692307692,-646
5000.0,-639
5007.692307692308,-632
5015.384615384615,-623
5023.076923076923,-630
5030.7692307692305,-644
5038.461538461539,-639
5046.153846153847,-625
5053.846153846154,-616
5061.538461538462,-621
5069.2307692307695,-639
5076.923076923077,-646
5084.615384615385,-635
5092.307692307692,-630
5100.0,-646
5107.692307692308,-656
5115.384615384615,-677
5123.076923076923,-717
5130.7692307692305,-691
5138.461538461539,-628
5146.153846153847,-609
5153.846153846154,-607
5161.538461538462,-609
5169.2307692307695,-632
5176.923076923077,-642
5184.615384615385,-632
5192.307692307692,-628
5200.0,-628
5207.692307692308,-644
5215.384615384615,-670
5223.076923076923,-698
5230.7692307692305,-670
5238.461538461539,-386
5246.153846153847,217
5253.846153846154,799
5261.538461538462,820
5269.2307692307695,67
5276.923076923077,-881
5284.615384615385,-1169
5292.307692307692,-958
5300.0,-885
5307.692307692308,-857
5315.384615384615,-733
5323.076923076923,-714
5330.7692307692305,-740
5338.461538461539,-700
5346.153846153847,-677
5353.846153846154,-672
5361.538461538462,-646
5369.2307692307695,-632
5376.923076923077,-625
5384.615384615385,-607
5392.307692307692,-597
5400.0,-585
5407.692307692308,-555
5415.384615384615,-532
5423.076923076923,-525
5430.7692307692305,-510
5438.461538461539,-478
5446.153846153847,-438
5453.846153846154,-410
5461.538461538462,-391
5469.2307692307695,-386
5476.923076923077,-384
5484.615384615385,-386
5492.307692307692,-389
5500.0,-377
5507.692307692308,-419
5515.384615384615,-517
5523.076923076923,-592
5530.7692307692305,-639
5538.461538461539,-679
5546.153846153847,-700
5553.846153846154,-705
5561.538461538462,-721
5569.2307692307695,-740
5576.923076923077,-738
5584.615384615385,-717
5592.307692307692,-705
5600.0,-719
5607.692307692308,-724
5615.384615384615,-714
5623.076923076923,-705
5630.7692307692305,-691
5638.461538461539,-679
5646.153846153847,-689
5653.846153846154,-728
5661.538461538462,-780
5669.2307692307695,-771
5676.923076923077,-712
5684.615384615385,-689
5692.307692307692,-693
5700.0,-679
5707.692307692308,-679
5715.384615384615,-693
5723.076923076923,-686
5730.7692307692305,-665
5738.461538461539,-670
5746.153846153847,-691
5753.846153846154,-686
5761.538461538462,-667
5769.2307692307695,-658
5776.923076923077,-660
5784.615384615385,-703
5792.307692307692,-738
5800.0,-705
5807.692307692308,-667
5815.384615384615,-670
5823.076923076923,-675
5830.7692307692305,-672
5838.461538461539,-682
5846.153846153847,-675
5853.846153846154,-637
5861.538461538462,-602
5869.2307692307695,-585
5876.923076923077,-592
5884.615384615385,-621
5892.307692307692,-637
5900.0,-628
5907.692307692308,-618
5915.384615384615,-614
5923.076923076923,-625
5930.7692307692305,-658
5938.461538461539,-684
5946.153846153847,-698
5953.846153846154,-592
5961.538461538462,-166
5969.2307692307695,487
5976.923076923077,902
5984.615384615385,607
5992.307692307692,-328
6000.0,-1052
6007.692307692308,-1038
6015.384615384615,-860
6023.076923076923,-864
6030.7692307692305,-775
6038.461538461539,-660
6046.153846153847,-684
6053.846153846154,-686
6061.538461538462,-649
6069.2307692307695,-660
6076.923076923077,-651
6084.615384615385,-609
6092.307692307692,-595
6100.0,-595
6107.692307692308,-592
6115.384615384615,-590
6123.076923076923,-562
6130.7692307692305,-529
6138.461538461539,-510
6146.153846153847,-494
6153.846153846154,-478
6161.538461538462,-457
6169.2307692307695,-421
6176.923076923077,-400
6184.615384615385,-379
6192.307692307692,-342
6200.0,-342
6207.692307692308,-384
6215.384615384615,-405
6223.076923076923,-417
6230.7692307692305,-478
6238.461538461539,-578
6246.153846153847,-700
6253.846153846154,-764
6261.538461538462,-742
6269.2307692307695,-742
6276.923076923077,-764
6284.615384615385,-766
6292.307692307692,-794
6300.0,-803
6307.692307692308,-759
6315.384615384615,-731
6323.076923076923,-735
6330.7692307692305,-728
6338.461538461539,-726
6346.153846153847,-733
6353.846153846154,-712
6361.538461538462,-677
6369.2307692307695,-670
6376.923076923077,-682
6384.615384615385,-686
6392.307692307692,-670
6400.0,-653
6407.692307692308,-646
6415.384615384615,-649
6423.076923076923,-670
6430.7692307692305,-679
6438.461538461539,-653
6446.153846153847,-637
6453.846153846154,-642
6461.538461538462,-646
6469.2307692307695,-651
6476.923076923077,-651
6484.615384615385,-646
6492.307692307692,-635
6500.0,-628
6507.692307692308,-635
6515.384615384615,-635
6523.076923076923,-642
6530.7692307692305,-651
6538.461538461539,-635
6546.153846153847,-625
6553.846153846154,-644
6561.538461538462,-653
6569.2307692307695,-651
6576.923076923077,-651
6584.615384615385,-618
6592.307692307692,-569
6600.0,-569
6607.692307692308,-600
6615.384615384615,-614
6623.076923076923,-623
6630.769230769231,-623
6638.461538461539,-618
6646.153846153847,-630
6653.846153846154,-656
6661.538461538462,-693
6669.2307692307695,-745
6676.923076923077,-724
6684.615384615385,-405
6692.307692307692,302
6700.0,1017
6707.692307692308,1134
6715.384615384615,377
6723.076923076923,-726
6730.769230769231,-1162
6738.461538461539,-944
6746.153846153847,-860
6753.846153846154,-883
6761.538461538462,-773
6769.2307692307695,-721
6776.923076923077,-766
6784.615384615385,-792
6792.307692307692,-789
6800.0,-778
6807.692307692308,-759
6815.384615384615,-717
6823.076923076923,-684
6830.769230769231,-677
6838.461538461539,-658
6846.153846153847,-621
6853.846153846154,-590
6861.538461538462,-567
6869.2307692307695,-548
6876.923076923077,-527
6884.615384615385,-485
6892.307692307692,-438
6900.0,-407
6907.692307692308,-379
6915.384615384615,-356
6923.076923076923,-353
6930.769230769231,-351
6938.461538461539,-351
6946.153846153847,-389
6953.846153846154,-452
6961.538461538462,-532
6969.2307692307695,-609
6976.923076923077,-656
6984.615384615385,-686
6992.307692307692,-728
7000.0,-750
7007.692307692308,-747
7015.384615384615,-740
7023.076923076923,-731
7030.769230769231,-726
7038.461538461539,-719
7046.153846153847,-705
7053.846153846154,-700
7061.538461538462,-698
7069.2307692307695,-684
7076.923076923077,-675
7084.615384615385,-675
7092.307692307692,-665
7100.0,-658
7107.692307692308,-658
7115.384615384615,-646
7123.076923076923,-635
7130.769230769231,-646
7138.461538461539,-653
7146.153846153847,-644
7153.846153846154,-637
7161.538461538462,-630
7169.2307692307695,-630
7176.923076923077,-635
7184.615384615385,-637
7192.307692307692,-637
7200.0,-632
7207.692307692308,-628
7215.384615384615,-630
7223.076923076923,-632
7230.769230769231,-635
7238.461538461539,-635
7246.153846153847,-628
7253.846153846154,-628
7261.538461538462,-646
7269.2307692307695,-660
7276.923076923077,-644
7284.615384615385,-602
7292.307692307692,-571
7300.0,-592
7307.692307692308,-649
7315.384615384615,-667
7323.076923076923,-656
7330.769230769231,-651
7338.461538461539,-644
7346.153846153847,-642
7353.846153846154,-670
7361.538461538462,-742
7369.2307692307695,-827
7376.923076923077,-689
7384.615384615385,-84
7392.307692307692,745
7400.0,1195
7407.692307692308,803
7415.384615384615,-283
7423.076923076923,-1099
7430.769230769231,-1052
7438.461538461539,-825
7446.153846153847,-857
7453.846153846154,-825
7461.538461538462,-731
7469.2307692307695,-733
7476.923076923077,-717
7484.615384615385,-665
7492.307692307692,-656
7500.0,-660
7507.692307692308,-644
7515.384615384615,-618
7523.076923076923,-597
7530.769230769231,-576
7538.461538461539,-562
7546.153846153847,-557
7553.846153846154,-541
7561.538461538462,-506
7569.2307692307695,-473
7576.923076923077,-447
7584.615384615385,-419
7592.307692307692,-400
7600.0,-379
7607.692307692308,-339
7615.384615384615,-311
7623.076923076923,-311
7630.769230769231,-325
7638.461538461539,-365
7646.153846153847,-421
7653.846153846154,-473
7661.538461538462,-539
7669.2307692307695,-611
7676.923076923077,-665
7684.615384615385,-705
7692.307692307692,-721
7700.0,-712
7707.692307692308,-707
7715.384615384615,-705
7723.076923076923,-703
7730.769230769231,-707
7738.461538461539,-700
7746.153846153847,-682
7753.846153846154,-670
7761.538461538462,-665
7769.2307692307695,-665
7776.923076923077,-675
7784.615384615385,-667
7792.307692307692,-649
7800.0,-639
7807.692307692308,-653
7815.384615384615,-696
7823.076923076923,-717
7830.769230769231,-677
7838.461538461539,-649
7846.153846153847,-651
7853.846153846154,-642
7861.538461538462,-642
7869.2307692307695,-658
7876.923076923077,-649
7884.615384615385,-625
7892.307692307692,-618
7900.0,-621
7907.692307692308,-630
7915.384615384615,-644
7923.076923076923,-632
7930.769230769231,-614
7938.461538461539,-611
7946.153846153847,-621
7953.846153846154,-675
7961.538461538462,-719
7969.2307692307695,-672
7976.923076923077,-623
7984.615384615385,-639
7992.307692307692,-675
8000.0,-710
8007.692307692308,-721
8015.384615384615,-660
8023.076923076923,-592
8030.769230769231,-576
8038.461538461539,-585
8046.153846153847,-604
8053.846153846154,-618
8061.538461538462,-611
8069.2307692307695,-604
8076.923076923077,-602
8084.615384615385,-611
8092.307692307692,-656
8100.0,-710
8107.692307692308,-700
8115.384615384615,-459
8123.076923076923,161
8130.769230769231,911
8138.461538461539,1202
8146.153846153847,618
8153.846153846154,-492
8161.538461538462,-1089
8169.2307692307695,-916
8176.923076923077,-775
8184.615384615385,-836
8192.307692307693,-750
8200.0,-665
8207.692307692309,-693
8215.384615384615,-677
8223.076923076924,-644
8230.76923076923,-639
8238.461538461539,-625
8246.153846153846,-607
8253.846153846154,-588
8261.538461538461,-564
8269.23076923077,-550
8276.923076923078,-550
8284.615384615385,-536
8292.307692307693,-499
8300.0,-471
8307.692307692309,-459
8315.384615384615,-459
8323.076923076924,-442
8330.76923076923,-407
8338.461538461539,-365
8346.153846153846,-318
8353.846153846154,-290
8361.538461538461,-300
8369.23076923077,-316
8376.923076923078,-337
8384.615384615385,-382
8392.307692307693,-447
8400.0,-520
8407.692307692309,-590
8415.384615384615,-642
8423.076923076924,-675
8430.76923076923,-686
8438.461538461539,-689
8446.153846153846,-693
8453.846153846154,-693
8461.538461538461,-689
8469.23076923077,-684
8476.923076923078,-665
8484.615384615385,-649
8492.307692307693,-689
8500.0,-738
8507.692307692309,-714
8515.384615384615,-667
8523.076923076924,-660
8530.76923076923,-658
8538.461538461539,-651
8546.153846153846,-646
8553.846153846154,-635
8561.538461538461,-628
8569.23076923077,-625
8576.923076923078,-614
8584.615384615385,-611
8592.307692307693,-609
8600.0,-602
8607.692307692309,-597
8615.384615384615,-592
8623.076923076924,-588
8630.76923076923,-590
8638.461538461539,-588
8646.153846153846,-588
8653.846153846154,-590
8661.538461538461,-583
8669.23076923077,-578
8676.923076923078,-585
8684.615384615385,-581
8692.307692307693,-574
8700.0,-574
8707.692307692309,-569
8715.384615384615,-569
8723.076923076924,-581
8730.76923076923,-578
8738.461538461539,-569
8746.153846153846,-581
8753.846153846154,-592
8761.538461538461,-597
8769.23076923077,-588
8776.923076923078,-553
8784.615384615385,-517
8792.307692307693,-513
8800.0,-515
8807.692307692309,-527
8815.384615384615,-564
8823.076923076924,-611
8830.76923076923,-618
8838.461538461539,-595
8846.153846153846,-600
8853.846153846154,-632
8861.538461538461,-658
8869.23076923077,-672
8876.923076923078,-560
8884.615384615385,-103
8892.307692307693,623
8900.0,1134
8907.692307692309,900
8915.384615384615,-91
8923.076923076924,-975
8930.76923076923,-1024
8938.461538461539,-789
8946.153846153846,-803
8953.846153846154,-759
8961.538461538461,-637
8969.23076923077,-651
8976.923076923078,-667
8984.615384615385,-621
8992.307692307693,-609
9000.0,-604
9007.692307692309,-569
9015.384615384615,-560
9023.076923076924,-574
9030.76923076923,-583
9038.461538461539,-597
9046.153846153846,-569
9053.846153846154,-513
9061.538461538461,-489
9069.23076923077,-482
9076.923076923078,-457
9084.615384615385,-426
9092.307692307693,-386
9100.0,-339
9107.692307692309,-318
9115.384615384615,-316
9123.076923076924,-309
9130.76923076923,-309
9138.461538461539,-321
9146.153846153846,-346
9153.846153846154,-400
9161.538461538461,-482
9169.23076923077,-553
9176.923076923078,-602
9184.615384615385,-632
9192.307692307693,-649
9200.0,-670
9207.692307692309,-689
9215.384615384615,-686
9223.076923076924,-667
9230.76923076923,-651
9238.461538461539,-639
9246.153846153846,-632
9253.846153846154,-639
9261.538461538461,-642
9269.23076923077,-628
9276.923076923078,-614
9284.615384615385,-607
9292.307692307693,-607
9300.0,-614
9307.692307692309,-616
9315.384615384615,-609
9323.076923076924,-632
9330.76923076923,-656
9338.461538461539,-632
9346.153846153846,-621
9353.846153846154,-632
9361.538461538461,-616
9369.23076923077,-595
9376.923076923078,-590
9384.615384615385,-592
9392.307692307693,-600
9400.0,-602
9407.692307692309,-585
9415.384615384615,-571
9423.076923076924,-571
9430.76923076923,-576
9438.461538461539,-583
9446.153846153846,-581
9453.846153846154,-569
9461.538461538461,-557
9469.23076923077,-555
9476.923076923078,-560
9484.615384615385,-574
9492.307692307693,-571
9500.0,-553
9507.692307692309,-548
9515.384615384615,-550
9523.076923076924,-555
9530.76923076923,-567
9538.461538461539,-569
9546.153846153846,-555
9553.846153846154,-548
9561.538461538461,-550
9569.23076923077,-574
9576.923076923078,-632
9584.615384615385,-646
9592.307692307693,-602
9600.0,-592
9607.692307692309,-602
9615.384615384615,-592
9623.076923076924,-585
9630.76923076923,-555
9638.461538461539,-513
9646.153846153846,-510
9653.846153846154,-522
9661.538461538461,-543
9669.23076923077,-569
9676.923076923078,-562
9684.615384615385,-539
9692.307692307693,-548
9700.0,-576
9707.692307692309,-623
9715.384615384615,-667
9723.076923076924,-539
9730.76923076923,-49
9738.461538461539,667
9746.153846153846,1155
9753.846153846154,916
9761.538461538461,-96
9769.23076923077,-984
9776.923076923078,-1000
9784.615384615385,-754
9792.307692307693,-780
9800.0,-761
9807.692307692309,-658
9815.384615384615,-656
9823.076923076924,-665
9830.76923076923,-651
9838.461538461539,-665
9846.153846153846,-653
9853.846153846154,-616
9861.538461538461,-592
9869.23076923077,-576
9876.923076923078,-546
9884.615384615385,-529
9892.307692307693,-532
9900.0,-520
9907.692307692309,-482
9915.384615384615,-452
9923.076923076924,-426
9930.76923076923,-396
9938.461538461539,-377
9946.153846153846,-353
9953.846153846154,-323
9961.538461538461,-302
9969.23076923077,-288
9976.923076923078,-288
9984.615384615385,-309
9992.307692307693,-342
10000.0,-379
10007.692307692309,-440
10015.384615384615,-508
10023.076923076924,-569
10030.76923076923,-623
10038.461538461539,-658
10046.153846153846,-670
10053.846153846154,-670
10061.538461538461,-665
10069.23076923077,-670
10076.923076923078,-675
10084.615384615385,-667
10092.307692307693,-649
10100.0,-635
10107.692307692309,-635
10115.384615384615,-642
10123.076923076924,-644
10130.76923076923,-639
10138.461538461539,-625
10146.153846153846,-614
10153.846153846154,-632
10161.538461538461,-679
10169.23076923077,-689
10176.923076923078,-651
10184.615384615385,-632
10192.307692307693,-630
10200.0,-618
10207.692307692309,-621
10215.384615384615,-628
10223.076923076924,-614
10230.76923076923,-600
10238.461538461539,-597
10246.153846153846,-602
10253.846153846154,-602
10261.538461538461,-590
10269.23076923077,-590
10276.923076923078,-585
10284.615384615385,-576
10292.307692307693,-578
10300.0,-585
10307.692307692309,-578
10315.384615384615,-571
10323.076923076924,-567
10330.76923076923,-562
10338.461538461539,-583
10346.153846153846,-618
10353.846153846154,-611
10361.538461538461,-585
10369.23076923077,-574
10376.923076923078,-571
10384.615384615385,-578
10392.307692307693,-576
10400.0,-569
10407.692307692309,-569
10415.384615384615,-560
10423.076923076924,-546
10430.76923076923,-557
10438.461538461539,-567
10446.153846153846,-560
10453.846153846154,-574
10461.538461538461,-581
10469.23076923077,-571
10476.923076923078,-562
10484.615384615385,-536
10492.307692307693,-496
10500.0,-492
10507.692307692309,-515
10515.384615384615,-534
10523.076923076924,-546
10530.76923076923,-539
10538.461538461539,-536
10546.153846153846,-550
10553.846153846154,-567
10561.538461538461,-600
10569.23076923077,-637
10576.923076923078,-515
10584.615384615385,-51
10592.307692307693,621
10600.0,1064
10607.692307692309,801
10615.384615384615,-157
10623.076923076924,-949
10630.76923076923,-960
10638.461538461539,-761
10646.153846153846,-764
10653.846153846154,-712
10661.538461538461,-625
10669.23076923077,-632
10676.923076923078,-632
10684.615384615385,-604
10692.307692307693,-595
10700.0,-590
10707.692307692309,-574
10715.384615384615,-550
10723.076923076924,-541
10730.76923076923,-536
10738.461538461539,-532
10746.153846153846,-560
10753.846153846154,-567
10761.538461538461,-510
10769.23076923077,-468
10776.923076923078,-452
10784.615384615385,-424
10792.307692307693,-398
10800.0,-377
10807.692307692309,-339
10815.384615384615,-311
10823.076923076924,-311
10830.76923076923,-316
10838.461538461539,-330
10846.153846153846,-386
10853.846153846154,-447
10861.538461538461,-487
10869.23076923077,-543
10876.923076923078,-609
10884.615384615385,-644
10892.307692307693,-653
10900.0,-663
10907.692307692309,-675
10915.384615384615,-672
10923.076923076924,-667
10930.76923076923,-663
10938.461538461539,-646
10946.153846153846,-628
10953.846153846154,-621
10961.538461538461,-625
10969.23076923077,-625
10976.923076923078,-616
10984.615384615385,-602
10992.307692307693,-588
11000.0,-590
11007.692307692309,-597
11015.384615384615,-597
11023.076923076924,-588
11030.76923076923,-576
11038.461538461539,-567
11046.153846153846,-569
11053.846153846154,-581
11061.538461538461,-590
11069.23076923077,-583
11076.923076923078,-567
11084.615384615385,-560
11092.307692307693,-564
11100.0,-574
11107.692307692309,-576
11115.384615384615,-564
11123.076923076924,-557
11130.76923076923,-555
11138.461538461539,-553
11146.153846153846,-564
11153.846153846154,-574
11161.538461538461,-564
11169.23076923077,-546
11176.923076923078,-539
11184.615384615385,-546
11192.307692307693,-562
11200.0,-571
11207.692307692309,-557
11215.384615384615,-536
11223.076923076924,-536
11230.76923076923,-546
11238.461538461539,-557
11246.153846153846,-560
11253.846153846154,-546
11261.538461538461,-546
11269.23076923077,-557
11276.923076923078,-576
11284.615384615385,-625
11292.307692307693,-651
11300.0,-581
11307.692307692309,-510
11315.384615384615,-513
11323.076923076924,-543
11330.76923076923,-569
11338.461538461539,-571
11346.153846153846,-567
11353.846153846154,-597
11361.538461538461,-614
11369.23076923077,-607
11376.923076923078,-649
11384.615384615385,-693
11392.307692307693,-560
11400.0,-77
11407.692307692309,642
11415.384615384615,1132
11423.076923076924,874
11430.76923076923,-128
11438.461538461539,-991
11446.153846153846,-1028
11453.846153846154,-794
11461.538461538461,-796
11469.23076923077,-759
11476.923076923078,-632
11484.615384615385,-618
11492.307692307693,-628
11500.0,-578
11507.692307692309,-567
11515.384615384615,-585
11523.076923076924,-564
11530.76923076923,-525
11538.461538461539,-510
11546.153846153846,-501
11553.846153846154,-496
11561.538461538461,-499
11569.23076923077,-473
11576.923076923078,-433
11584.615384615385,-407
11592.307692307693,-391
11600.0,-377
11607.692307692309,-358
11615.384615384615,-318
11623.076923076924,-283
11630.76923076923,-274
11638.461538461539,-271
11646.153846153846,-283
11653.846153846154,-307
11661.538461538461,-330
11669.23076923077,-375
11676.923076923078,-452
11684.615384615385,-532
11692.307692307693,-597
11700.0,-653
11707.692307692309,-682
11715.384615384615,-684
11723.076923076924,-686
11730.76923076923,-693
11738.461538461539,-696
11746.153846153846,-691
11753.846153846154,-677
11761.538461538461,-663
11769.23076923077,-658
11776.923076923078,-653
11784.615384615385,-658
11792.307692307693,-656
11800.0,-632
11807.692307692309,-611
11815.384615384615,-607
11823.076923076924,-614
11830.76923076923,-618
11838.461538461539,-609
11846.153846153846,-595
11853.846153846154,-609
11861.538461538461,-656
11869.23076923077,-710
11876.923076923078,-721
11884.615384615385,-682
11892.307692307693,-651
11900.0,-639
11907.692307692309,-635
11915.384615384615,-635
11923.076923076924,-630
11930.76923076923,-618
11938.461538461539,-611
11946.153846153846,-604
11953.846153846154,-600
11961.538461538461,-602
11969.23076923077,-602
11976.923076923078,-597
11984.615384615385,-590
11992.307692307693,-583
12000.0,-590
12007.692307692309,-607
12015.384615384615,-611
12023.076923076924,-607
12030.76923076923,-576
12038.461538461539,-522
12046.153846153846,-496
12053.846153846154,-517
12061.538461538461,-546
12069.23076923077,-562
12076.923076923078,-560
12084.615384615385,-548
12092.307692307693,-555
12100.0,-578
12107.692307692309,-611
12115.384615384615,-663
12123.076923076924,-660
12130.76923076923,-360
12138.461538461539,344
12146.153846153846,1078
12153.846153846154,1216
12161.538461538461,461
12169.23076923077,-646
12176.923076923078,-1092
12184.615384615385,-874
12192.307692307693,-768
12200.0,-787
12207.692307692309,-677
12215.384615384615,-618
12223.076923076924,-646
12230.76923076923,-623
12238.461538461539,-588
12246.153846153846,-585
12253.846153846154,-576
12261.538461538461,-548
12269.23076923077,-536
12276.923076923078,-534
12284.615384615385,-520
12292.307692307693,-494
12300.0,-473
12307.692307692309,-454
12315.384615384615,-433
12323.076923076924,-417
12330.76923076923,-389
12338.461538461539,-346
12346.153846153846,-318
12353.846153846154,-300
12361.538461538461,-295
12369.23076923077,-311
12376.923076923078,-309
12384.615384615385,-304
12392.307692307693,-335
12400.0,-389
12407.692307692309,-487
12415.384615384615,-604
12423.076923076924,-651
12430.76923076923,-660
12438.461538461539,-693
12446.153846153846,-703
12453.846153846154,-698
12461.538461538461,-707
12469.23076923077,-696
12476.923076923078,-672
12484.615384615385,-665
12492.307692307693,-658
12500.0,-651
12507.692307692309,-653
12515.384615384615,-635
12523.076923076924,-618
12530.76923076923,-614
12538.461538461539,-600
12546.153846153846,-592
12553.846153846154,-592
12561.538461538461,-576
12569.23076923077,-560
12576.923076923078,-562
12584.615384615385,-560
12592.307692307693,-562
12600.0,-562
12607.692307692309,-553
12615.384615384615,-548
12623.076923076924,-557
12630.76923076923,-562
12638.461538461539,-557
12646.153846153846,-548
12653.846153846154,-539
12661.538461538461,-546
12669.23076923077,-550
12676.923076923078,-548
12684.615384615385,-548
12692.307692307693,-539
12700.0,-527
12707.692307692309,-534
12715.384615384615,-541
12723.076923076924,-539
12730.76923076923,-543
12738.461538461539,-553
12746.153846153846,-550
12753.846153846154,-553
12761.538461538461,-541
12769.23076923077,-499
12776.923076923078,-473
12784.615384615385,-478
12792.307692307693,-487
12800.0,-499
12807.692307692309,-520
12815.384615384615,-529
12823.076923076924,-520
12830.76923076923,-522
12838.461538461539,-546
12846.153846153846,-590
12853.846153846154,-632
12861.538461538461,-489
12869.23076923077,46
12876.923076923078,801
12884.615384615385,1218
12892.307692307693,815
12900.0,-271
12907.692307692309,-1054
12915.384615384615,-977
12923.076923076924,-747
12930.76923076923,-766
12938.461538461539,-705
12946.153846153846,-637
12953.846153846154,-705
12961.538461538461,-696
12969.23076923077,-602
12976.923076923078,-583
12984.615384615385,-588
12992.307692307693,-571
13000.0,-560
13007.692307692309,-536
13015.384615384615,-501
13023.076923076924,-475
13030.76923076923,-464
13038.461538461539,-457
13046.153846153846,-440
13053.846153846154,-400
13061.538461538461,-358
13069.23076923077,-323
13076.923076923078,-304
13084.615384615385,-290
13092.307692307693,-267
13100.0,-234
13107.692307692309,-225
13115.384615384615,-239
13123.076923076924,-267
13130.76923076923,-316
13138.461538461539,-382
13146.153846153846,-442
13153.846153846154,-499
13161.538461538463,-550
13169.23076923077,-597
13176.923076923078,-635
13184.615384615385,-642
13192.307692307693,-628
13200.0,-621
13207.692307692309,-616
13215.384615384615,-611
13223.076923076924,-623
13230.76923076923,-616
13238.461538461539,-590
13246.153846153846,-578
13253.846153846154,-578
13261.538461538463,-578
13269.23076923077,-583
13276.923076923078,-571
13284.615384615385,-555
13292.307692307693,-546
13300.0,-536
13307.692307692309,-536
13315.384615384615,-550
13323.076923076924,-546
13330.76923076923,-532
13338.461538461539,-529
13346.153846153846,-527
13353.846153846154,-536
13361.538461538463,-553
13369.23076923077,-571
13376.923076923078,-592
13384.615384615385,-585
13392.307692307693,-557
13400.0,-557
13407.692307692309,-571
13415.384615384615,-562
13423.076923076924,-550
13430.76923076923,-543
13438.461538461539,-534
13446.153846153846,-539
13453.846153846154,-553
13461.538461538463,-543
13469.23076923077,-527
13476.923076923078,-525
13484.615384615385,-539
13492.307692307693,-560
13500.0,-571
13507.692307692309,-562
13515.384615384615,-548
13523.076923076924,-517
13530.76923076923,-501
13538.461538461539,-543
13546.153846153846,-574
13553.846153846154,-548
13561.538461538463,-532
13569.23076923077,-541
13576.923076923078,-539
13584.615384615385,-553
13592.307692307693,-576
13600.0,-597
13607.692307692309,-644
13615.384615384615,-602
13623.076923076924,-203
13630.76923076923,532
13638.461538461539,1153
13646.153846153846,1101
13653.846153846154,225
13661.538461538463,-792
13669.23076923077,-1052
13676.923076923078,-825
13684.615384615385,-773
13692.307692307693,-752
13700.0,-630
13707.692307692309,-611
13715.384615384615,-642
13723.076923076924,-604
13730.76923076923,-576
13738.461538461539,-576
13746.153846153846,-555
13753.846153846154,-532
13761.538461538463,-529
13769.23076923077,-520
13776.923076923078,-501
13784.615384615385,-487
13792.307692307693,-459
13800.0,-428
13807.692307692309,-417
13815.384615384615,-400
13823.076923076924,-365
13830.76923076923,-335
13838.461538461539,-300
13846.153846153846,-271
13853.846153846154,-260
13861.538461538463,-260
13869.23076923077,-267
13876.923076923078,-295
13884.615384615385,-349
13892.307692307693,-400
13900.0,-457
13907.692307692309,-525
13915.384615384615,-585
13923.076923076924,-621
13930.76923076923,-639
13938.461538461539,-660
13946.153846153846,-670
13953.846153846154,-665
13961.538461538463,-658
13969.23076923077,-651
13976.923076923078,-644
13984.615384615385,-637
13992.307692307693,-630
14000.0,-623
14007.692307692309,-616
14015.384615384615,-600
14023.076923076924,-583
14030.76923076923,-585
14038.461538461539,-585
14046.153846153846,-576
14053.846153846154,-569
14061.538461538463,-562
14069.23076923077,-562
14076.923076923078,-562
14084.615384615385,-555
14092.307692307693,-553
14100.0,-557
14107.692307692309,-555
14115.384615384615,-548
14123.076923076924,-557
14130.76923076923,-557
14138.461538461539,-543
14146.153846153846,-546
14153.846153846154,-550
14161.538461538463,-564
14169.23076923077,-614
14176.923076923078,-621
14184.615384615385,-578
14192.307692307693,-564
14200.0,-569
14207.692307692309,-569
14215.384615384615,-571
14223.076923076924,-571
14230.76923076923,-569
14238.461538461539,-574
14246.153846153846,-571
14253.846153846154,-541
14261.538461538463,-499
14269.23076923077,-478
14276.923076923078,-487
14284.615384615385,-503
14292.307692307693,-513
14300.0,-520
14307.692307692309,-525
14315.384615384615,-517
14323.076923076924,-532
14330.76923076923,-567
14338.461538461539,-616
14346.153846153846,-639
14353.846153846154,-405
14361.538461538463,274
14369.23076923077,1061
14376.923076923078,1314
14384.615384615385,658
14392.307692307693,-520
14400.0,-1127
14407.692307692309,-897
14415.384615384615,-717
14423.076923076924,-775
14430.76923076923,-684
14438.461538461539,-597
14446.153846153846,-632
14453.846153846154,-609
14461.538461538463,-553
14469.23076923077,-560
14476.923076923078,-557
14484.615384615385,-529
14492.307692307693,-517
14500.0,-508
14507.692307692309,-482
14515.384615384615,-466
14523.076923076924,-454
14530.76923076923,-428
14538.461538461539,-400
14546.153846153846,-375
14553.846153846154,-346
14561.538461538463,-318
14569.23076923077,-290
14576.923076923078,-262
14584.615384615385,-236
14592.307692307693,-217
14600.0,-225
14607.692307692309,-243
14615.384615384615,-276
14623.076923076924,-330
14630.76923076923,-396
14638.461538461539,-459
14646.153846153846,-527
14653.846153846154,-600
14661.538461538463,-677
14669.23076923077,-714
14676.923076923078,-677
14684.615384615385,-651
14692.307692307693,-660
14700.0,-653
14707.692307692309,-642
14715.384615384615,-635
14723.076923076924,-614
14730.76923076923,-597
14738.461538461539,-597
14746.153846153846,-597
14753.846153846154,-592
14761.538461538463,-581
14769.23076923077,-564
14776.923076923078,-553
14784.615384615385,-550
14792.307692307693,-560
14800.0,-562
14807.692307692309,-548
14815.384615384615,-529
14823.076923076924,-520
14830.76923076923,-522
14838.461538461539,-539
14846.153846153846,-546
14853.846153846154,-532
14861.538461538463,-520
14869.23076923077,-522
14876.923076923078,-525
14884.615384615385,-536
14892.307692307693,-560
14900.0,-576
14907.692307692309,-555
14915.384615384615,-527
14923.076923076924,-534
14930.76923076923,-553
14938.461538461539,-546
14946.153846153846,-522
14953.846153846154,-510
14961.538461538463,-506
14969.23076923077,-506
14976.923076923078,-513
14984.615384615385,-517
14992.307692307693,-503
15000.0,-494
15007.692307692309,-489
15015.384615384615,-499
15023.076923076924,-517
15030.76923076923,-517
15038.461538461539,-506
15046.153846153846,-508
15053.846153846154,-510
15061.538461538463,-513
15069.23076923077,-499
15076.923076923078,-454
15084.615384615385,-426
15092.307692307693,-435
15100.0,-457
15107.692307692309,-478
15115.384615384615,-492
15123.076923076924,-485
15130.76923076923,-475
15138.461538461539,-492
15146.153846153846,-529
15153.846153846154,-585
15161.538461538463,-578
15169.23076923077,-264
15176.923076923078,440
15184.615384615385,1150
15192.307692307693,1300
15200.0,567
15207.692307692309,-595
15215.384615384615,-1068
15223.076923076924,-775
15230.76923076923,-644
15238.461538461539,-717
15246.153846153846,-632
15253.846153846154,-576
15261.538461538463,-602
15269.23076923077,-567
15276.923076923078,-522
15284.615384615385,-539
15292.307692307693,-583
15300.0,-588
15307.692307692309,-534
15315.384615384615,-492
15323.076923076924,-478
15330.76923076923,-464
15338.461538461539,-461
15346.153846153846,-450
15353.846153846154,-405
15361.538461538463,-365
15369.23076923077,-342
15376.923076923078,-314
15384.615384615385,-292
15392.307692307693,-281
15400.0,-276
15407.692307692309,-271
15415.384615384615,-248
15423.076923076924,-248
15430.76923076923,-285
15438.461538461539,-328
15446.153846153846,-375
15453.846153846154,-438
15461.538461538463,-496
15469.23076923077,-550
15476.923076923078,-592
15484.615384615385,-614
15492.307692307693,-618
15500.0,-611
15507.692307692309,-602
15515.384615384615,-595
15523.076923076924,-595
15530.76923076923,-583
15538.461538461539,-564
15546.153846153846,-555
15553.846153846154,-546
15561.538461538463,-548
15569.23076923077,-555
15576.923076923078,-548
15584.615384615385,-534
15592.307692307693,-520
15600.0,-522
15607.692307692309,-534
15615.384615384615,-532
15623.076923076924,-522
15630.76923076923,-517
15638.461538461539,-508
15646.153846153846,-508
15653.846153846154,-515
15661.538461538463,-513
15669.23076923077,-513
15676.923076923078,-508
15684.615384615385,-496
15692.307692307693,-494
15700.0,-508
15707.692307692309,-515
15715.384615384615,-506
15723.076923076924,-496
15730.76923076923,-494
15738.461538461539,-496
15746.153846153846,-501
15753.846153846154,-499
15761.538461538463,-496
15769.23076923077,-494
15776.923076923078,-492
15784.615384615385,-522
15792.307692307693,-564
15800.0,-550
15807.692307692309,-520
15815.384615384615,-515
15823.076923076924,-515
15830.76923076923,-508
15838.461538461539,-506
15846.153846153846,-503
15853.846153846154,-496
15861.538461538463,-489
15869.23076923077,-492
15876.923076923078,-501
15884.615384615385,-503
15892.307692307693,-515
15900.0,-548
15907.692307692309,-564
15915.384615384615,-522
15923.076923076924,-475
15930.76923076923,-454
15938.461538461539,-454
15946.153846153846,-471
15953.846153846154,-480
15961.538461538463,-473
15969.23076923077,-480
15976.923076923078,-487
15984.615384615385,-487
15992.307692307693,-515
16000.0,-560
16007.692307692309,-588
16015.384615384615,-433
16023.076923076924,119
16030.76923076923,885
16038.461538461539,1307
16046.153846153846,918
16053.846153846154,-154
16061.538461538463,-946
16069.23076923077,-878
16076.923076923078,-667
16084.615384615385,-705
16092.307692307693,-642
16100.0,-548
16107.692307692309,-588
16115.384615384615,-585
16123.076923076924,-529
16130.76923076923,-527
16138.461538461539,-532
16146.153846153846,-508
16153.846153846154,-489
16161.538461538463,-471
16169.23076923077,-452
16176.923076923078,-435
16184.615384615385,-421
16192.307692307693,-405
16200.0,-386
16207.692307692309,-358
16215.384615384615,-332
16223.076923076924,-309
16230.76923076923,-278
16238.461538461539,-255
16246.153846153846,-234
16253.846153846154,-203
16261.538461538463,-196
16269.23076923077,-210
16276.923076923078,-227
16284.615384615385,-257
16292.307692307693,-318
16300.0,-384
16307.692307692309,-450
16315.384615384615,-515
16323.076923076924,-585
16330.76923076923,-651
16338.461538461539,-663
16346.153846153846,-632
16353.846153846154,-623
16361.538461538463,-630
16369.23076923077,-616
16376.923076923078,-600
16384.615384615387,-588
16392.30769230769,-576
16400.0,-585
16407.69230769231,-618
16415.384615384617,-625
16423.076923076922,-592
16430.76923076923,-564
16438.46153846154,-557
16446.153846153848,-553
16453.846153846156,-548
16461.53846153846,-548
16469.23076923077,-541
16476.923076923078,-525
16484.615384615387,-513
16492.30769230769,-515
16500.0,-517
16507.69230769231,-515
16515.384615384617,-510
16523.076923076922,-499
16530.76923076923,-492
16538.46153846154,-501
16546.153846153848,-513
16553.846153846156,-506
16561.53846153846,-492
16569.23076923077,-482
16576.923076923078,-478
16584.615384615387,-478
16592.30769230769,-482
16600.0,-489
16607.69230769231,-482
16615.384615384617,-466
16623.076923076922,-464
16630.76923076923,-468
16638.46153846154,-478
16646.153846153848,-482
16653.846153846156,-468
16661.53846153846,-454
16669.23076923077,-454
16676.923076923078,-459
16684.615384615387,-466
16692.30769230769,-471
16700.0,-461
16707.69230769231,-450
16715.384615384617,-447
16723.076923076922,-452
16730.76923076923,-461
16738.46153846154,-464
16746.153846153848,-454
16753.846153846156,-447
16761.53846153846,-452
16769.23076923077,-468
16776.923076923078,-487
16784.615384615387,-487
16792.30769230769,-471
16800.0,-445
16807.69230769231,-407
16815.384615384617,-396
16823.076923076922,-424
16830.76923076923,-445
16838.46153846154,-442
16846.153846153848,-442
16853.846153846156,-442
16861.53846153846,-461
16869.23076923077,-529
16876.923076923078,-564
16884.615384615387,-560
16892.30769230769,-560
16900.0,-389
16907.69230769231,135
16915.384615384617,808
16923.076923076922,1136
16930.76923076923,686
16938.46153846154,-349
16946.153846153848,-977
16953.846153846156,-850
16961.53846153846,-703
16969.23076923077,-724
16976.923076923078,-618
16984.615384615387,-529
16992.30769230769,-560
17000.0,-557
17007.69230769231,-525
17015.384615384617,-513
17023.076923076922,-492
17030.76923076923,-471
17038.46153846154,-461
17046.153846153848,-459
17053.846153846156,-454
17061.53846153846,-433
17069.23076923077,-403
17076.923076923078,-377
17084.615384615387,-358
17092.30769230769,-344
17100.0,-332
17107.69230769231,-300
17115.384615384617,-255
17123.076923076922,-232
17130.76923076923,-215
17138.46153846154,-206
17146.153846153848,-206
17153.846153846156,-203
17161.53846153846,-206
17169.23076923077,-234
17176.923076923078,-290
17184.615384615387,-365
17192.30769230769,-435
17200.0,-480
17207.69230769231,-508
17215.384615384617,-536
17223.076923076922,-560
17230.76923076923,-578
17238.46153846154,-581
17246.153846153848,-562
17253.846153846156,-548
17261.53846153846,-546
17269.23076923077,-546
17276.923076923078,-546
17284.615384615387,-541
17292.30769230769,-522
17300.0,-508
17307.69230769231,-501
17315.384615384617,-487
17323.076923076922,-492
17330.76923076923,-494
17338.46153846154,-475
17346.153846153848,-459
17353.846153846156,-464
17361.53846153846,-473
17369.23076923077,-478
17376.923076923078,-480
17384.615384615387,-475
17392.30769230769,-459
17400.0,-447
17407.69230769231,-459
17415.384615384617,-496
17423.076923076922,-515
17430.76923076923,-485
17438.46153846154,-464
17446.153846153848,-475
17453.846153846156,-480
17461.53846153846,-478
17469.23076923077,-482
17476.923076923078,-473
17484.615384615387,-459
17492.30769230769,-482
17500.0,-529
17507.69230769231,-536
17515.384615384617,-503
17523.076923076922,-487
17530.76923076923,-485
17538.46153846154,-480
17546.153846153848,-478
17553.846153846156,-473
17561.53846153846,-468
17569.23076923077,-461
17576.923076923078,-447
17584.615384615387,-447
17592.30769230769,-461
17600.0,-459
17607.69230769231,-457
17615.384615384617,-459
17623.076923076922,-452
17630.76923076923,-461
17638.46153846154,-475
17646.153846153848,-468
17653.846153846156,-445
17661.53846153846,-412
17669.23076923077,-382
17676.923076923078,-393
17684.615384615387,-431
17692.30769230769,-447
17700.0,-440
17707.69230769231,-431
17715.384615384617,-433
17723.076923076922,-447
17730.76923076923,-468
17738.46153846154,-499
17746.153846153848,-541
17753.846153846156,-431
17761.53846153846,49
17769.23076923077,766
17776.923076923078,1218
17784.615384615387,914
17792.30769230769,-103
17800.0,-914
17807.69230769231,-888
17815.384615384617,-667
17823.076923076922,-684
17830.76923076923,-618
17838.46153846154,-513
17846.153846153848,-532
17853.846153846156,-536
17861.53846153846,-496
17869.23076923077,-482
17876.923076923078,-471
17884.615384615387,-452
17892.30769230769,-440
17900.0,-428
17907.69230769231,-417
17915.384615384617,-407
17923.076923076922,-419
17930.76923076923,-424
17938.46153846154,-379
17946.153846153848,-342
17953.846153846156,-332
17961.53846153846,-292
17969.23076923077,-243
17976.923076923078,-217
17984.615384615387,-199
17992.30769230769,-178
18000.0,-171
18007.69230769231,-171
18015.384615384617,-182
18023.076923076922,-215
18030.76923076923,-285
18038.46153846154,-396
18046.153846153848,-489
18053.846153846156,-522
18061.53846153846,-553
18069.23076923077,-600
18076.923076923078,-616
18084.615384615387,-616
18092.30769230769,-618
18100.0,-604
18107.69230769231,-592
18115.384615384617,-592
18123.076923076922,-585
18130.76923076923,-576
18138.46153846154,-562
18146.153846153848,-546
18153.846153846156,-536
18161.53846153846,-539
18169.23076923077,-534
18176.923076923078,-520
18184.615384615387,-510
18192.30769230769,-501
18200.0,-494
18207.69230769231,-496
18215.384615384617,-499
18223.076923076922,-496
18230.76923076923,-489
18238.46153846154,-480
18246.153846153848,-480
18253.846153846156,-485
18261.53846153846,-489
18269.23076923077,-489
18276.923076923078,-480
18284.615384615387,-473
18292.30769230769,-475
18300.0,-482
18307.69230769231,-485
18315.384615384617,-480
18323.076923076922,-471
18330.76923076923,-464
18338.46153846154,-464
18346.153846153848,-471
18353.846153846156,-478
18361.53846153846,-475
18369.23076923077,-466
18376.923076923078,-466
18384.615384615387,-480
18392.30769230769,-494
18400.0,-496
18407.69230769231,-475
18415.384615384617,-433
18423.076923076922,-426
18430.76923076923,-464
18438.46153846154,-482
18446.153846153848,-480
18453.846153846156,-482
18461.53846153846,-473
18469.23076923077,-461
18476.923076923078,-471
18484.615384615387,-503
18492.30769230769,-543
18500.0,-585
18507.69230769231,-506
18515.384615384617,-60
18523.076923076922,700
18530.76923076923,1251
18538.46153846154,1054
18546.153846153848,86
18553.846153846156,-829
18561.53846153846,-930
18569.23076923077,-700
18576.923076923078,-740
18584.615384615387,-747
18592.30769230769,-592
18600.0,-557
18607.69230769231,-583
18615.384615384617,-541
18623.076923076922,-522
18630.76923076923,-527
18638.46153846154,-489
18646.153846153848,-459
18653.846153846156,-452
18661.53846153846,-442
18669.23076923077,-433
18676.923076923078,-414
18684.615384615387,-382
18692.30769230769,-353
18700.0,-330
18707.69230769231,-309
18715.384615384617,-292
18723.076923076922,-260
18730.76923076923,-213
18738.46153846154,-185
18746.153846153848,-168
18753.846153846156,-164
18761.53846153846,-178
18769.23076923077,-196
18776.923076923078,-222
18784.615384615387,-276
18792.30769230769,-349
18800.0,-428
18807.69230769231,-499
18815.384615384617,-536
18823.076923076922,-550
18830.76923076923,-560
18838.46153846154,-567
18846.153846153848,-576
18853.846153846156,-581
18861.53846153846,-569
18869.23076923077,-550
18876.923076923078,-541
18884.615384615387,-539
18892.30769230769,-543
18900.0,-550
18907.69230769231,-529
18915.384615384617,-508
18923.076923076922,-513
18930.76923076923,-539
18938.46153846154,-560
18946.153846153848,-546
18953.846153846156,-513
18961.53846153846,-501
18969.23076923077,-496
18976.923076923078,-492
18984.615384615387,-499
18992.30769230769,-506
19000.0,-492
19007.69230769231,-480
19015.384615384617,-478
19023.076923076922,-482
19030.76923076923,-492
19038.46153846154,-494
19046.153846153848,-482
19053.846153846156,-471
19061.53846153846,-468
19069.23076923077,-473
19076.923076923078,-482
19084.615384615387,-482
19092.30769230769,-466
19100.0,-457
19107.69230769231,-457
19115.384615384617,-464
19123.076923076922,-475
19130.76923076923,-482
19138.46153846154,-475
19146.153846153848,-475
19153.846153846156,-487
19161.53846153846,-522
19169.23076923077,-548
19176.923076923078,-499
19184.615384615387,-431
19192.30769230769,-428
19200.0,-450
19207.69230769231,-461
19215.384615384617,-478
19223.076923076922,-478
19230.76923076923,-468
19238.46153846154,-468
19246.153846153848,-487
19253.846153846156,-529
19261.53846153846,-585
19269.23076923077,-525
19276.923076923078,-110
19284.615384615387,630
19292.30769230769,1235
19300.0,1127
19307.69230769231,187
19315.384615384617,-792
19323.076923076922,-944
19330.76923076923,-675
19338.46153846154,-658
19346.153846153848,-665
19353.846153846156,-555
19361.53846153846,-541
19369.23076923077,-562
19376.923076923078,-513
19384.615384615387,-489
19392.30769230769,-499
19400.0,-482
19407.69230769231,-457
19415.384615384617,-445
19423.076923076922,-426
19430.76923076923,-417
19438.46153846154,-433
19446.153846153848,-424
19453.846153846156,-382
19461.53846153846,-346
19469.23076923077,-323
19476.923076923078,-292
19484.615384615387,-264
19492.30769230769,-232
19500.0,-201
19507.69230769231,-180
19515.384615384617,-166
19523.076923076922,-168
19530.76923076923,-185
19538.46153846154,-215
19546.153846153848,-271
19553.846153846156,-342
19561.53846153846,-407
19569.23076923077,-475
19576.923076923078,-525
19584.615384615387,-553
19592.30769230769,-574
19600.0,-576
19607.69230769231,-569
19615.384615384617,-571
19623.076923076922,-567
19630.76923076923,-550
19638.46153846154,-548
19646.153846153848,-543
19653.846153846156,-534
19661.53846153846,-532
19669.23076923077,-525
19676.923076923078,-515
19684.615384615387,-517
19692.30769230769,-513
19700.0,-529
19707.69230769231,-564
19715.384615384617,-553
19723.076923076922,-517
19730.76923076923,-517
19738.46153846154,-515
19746.153846153848,-503
19753.846153846156,-506
19761.53846153846,-499
19769.23076923077,-487
19776.923076923078,-492
19784.615384615387,-489
19792.30769230769,-485
19800.0,-489
19807.69230769231,-480
19815.384615384617,-471
19823.076923076922,-475
19830.76923076923,-471
19838.46153846154,-468
19846.153846153848,-468
19853.846153846156,-459
19861.53846153846,-457
19869.23076923077,-461
19876.923076923078,-461
19884.615384615387,-461
19892.30769230769,-461
19900.0,-454
19907.69230769231,-457
19915.384615384617,-473
19923.076923076922,-468
19930.76923076923,-466
19938.46153846154,-478
19946.153846153848,-450
19953.846153846156,-405
19961.53846153846,-412
19969.23076923077,-440
19976.923076923078,-447
19984.615384615387,-445
19992.30769230769,-440
20000.0,-440
20007.69230769231,-454
20015.384615384617,-482
20023.076923076922,-522
20030.76923076923,-564
20038.46153846154,-487
20046.153846153848,-70
20053.846153846156,653
20061.53846153846,1230
20069.23076923077,1099
20076.923076923078,152
20084.615384615387,-806
20092.30769230769,-937
20100.0,-677
20107.69230769231,-667
20115.384615384617,-656
20123.076923076922,-539
20130.76923076923,-525
20138.46153846154,-546
20146.153846153848,-510
20153.846153846156,-492
20161.53846153846,-489
20169.23076923077,-464
20176.923076923078,-438
20184.615384615387,-433
20192.30769230769,-431
20200.0,-417
20207.69230769231,-393
20215.384615384617,-367
20223.076923076922,-346
20230.76923076923,-328
20238.46153846154,-328
20246.153846153848,-339
20253.846153846156,-307
20261.53846153846,-246
20269.23076923077,-208
20276.923076923078,-194
20284.615384615387,-187
20292.30769230769,-189
20300.0,-196
20307.69230769231,-217
20315.384615384617,-269
20323.076923076922,-344
20330.76923076923,-428
20338.46153846154,-492
20346.153846153848,-525
20353.846153846156,-546
20361.53846153846,-560
20369.23076923077,-574
20376.923076923078,-583
20384.615384615387,-581
20392.30769230769,-557
20400.0,-539
20407.69230769231,-534
20415.384615384617,-534
20423.076923076922,-541
20430.76923076923,-539
20438.46153846154,-529
20446.153846153848,-548
20453.846153846156,-560
20461.53846153846,-536
20469.23076923077,-529
20476.923076923078,-529
20484.615384615387,-506
20492.30769230769,-489
20500.0,-485
20507.69230769231,-485
20515.384615384617,-494
20523.076923076922,-489
20530.76923076923,-473
20538.46153846154,-466
20546.153846153848,-466
20553.846153846156,-471
20561.53846153846,-482
20569.23076923077,-475
20576.923076923078,-457
20584.615384615387,-452
20592.30769230769,-450
20600.0,-454
20607.69230769231,-466
20615.384615384617,-461
20623.076923076922,-442
20630.76923076923,-440
20638.46153846154,-440
20646.153846153848,-447
20653.846153846156,-457
20661.53846153846,-450
20669.23076923077,-435
20676.923076923078,-431
20684.615384615387,-433
20692.30769230769,-442
20700.0,-454
20707.69230769231,-450
20715.384615384617,-435
20723.076923076922,-438
20730.76923076923,-450
20738.46153846154,-459
20746.153846153848,-454
20753.846153846156,-424
20761.53846153846,-386
20769.23076923077,-372
20776.923076923078,-384
20784.615384615387,-407
20792.30769230769,-431
20800.0,-431
20807.69230769231,-421
20815.384615384617,-424
20823.076923076922,-433
20830.76923076923,-461
20838.46153846154,-506
20846.153846153848,-550
20853.846153846156,-487
20861.53846153846,-103
20869.23076923077,600
20876.923076923078,1185
20884.615384615387,1108
20892.30769230769,227
20900.0,-764
20907.69230769231,-967
20915.384615384617,-703
20923.076923076922,-672
20930.76923076923,-675
20938.46153846154,-553
20946.153846153848,-555
20953.846153846156,-611
20961.53846153846,-564
20969.23076923077,-517
20976.923076923078,-520
20984.615384615387,-494
20992.30769230769,-457
21000.0,-447
21007.69230769231,-440
21015.384615384617,-424
21023.076923076922,-403
21030.76923076923,-377
21038.46153846154,-346
21046.153846153848,-323
21053.846153846156,-304
21061.53846153846,-278
21069.23076923077,-243
21076.923076923078,-206
21084.615384615387,-173
21092.30769230769,-157
21100.0,-154
21107.69230769231,-154
21115.384615384617,-161
21123.076923076922,-185
21130.76923076923,-227
21138.46153846154,-295
21146.153846153848,-379
21153.846153846156,-447
21161.53846153846,-492
21169.23076923077,-522
21176.923076923078,-541
21184.615384615387,-553
21192.30769230769,-560
21200.0,-557
21207.69230769231,-548
21215.384615384617,-536
21223.076923076922,-522
21230.76923076923,-522
21238.46153846154,-527
21246.153846153848,-517
21253.846153846156,-510
21261.53846153846,-499
21269.23076923077,-487
21276.923076923078,-487
21284.615384615387,-489
21292.30769230769,-482
21300.0,-475
21307.69230769231,-468
21315.384615384617,-464
21323.076923076922,-464
21330.76923076923,-468
21338.46153846154,-466
21346.153846153848,-466
21353.846153846156,-464
21361.53846153846,-454
21369.23076923077,-461
21376.923076923078,-468
21384.615384615387,-466
21392.30769230769,-461
21400.0,-457
21407.69230769231,-468
21415.384615384617,-513
21423.076923076922,-527
21430.76923076923,-494
21438.46153846154,-480
21446.153846153848,-485
21453.846153846156,-485
21461.53846153846,-506
21469.23076923077,-508
21476.923076923078,-478
21484.615384615387,-471
21492.30769230769,-473
21500.0,-464
21507.69230769231,-464
21515.384615384617,-461
21523.076923076922,-452
21530.76923076923,-454
21538.46153846154,-454
21546.153846153848,-457
21553.846153846156,-471
21561.53846153846,-464
21569.23076923077,-447
21576.923076923078,-428
21584.615384615387,-396
21592.30769230769,-379
21600.0,-391
21607.69230769231,-403
21615.384615384617,-412
21623.076923076922,-431
21630.76923076923,-433
21638.46153846154,-431
21646.153846153848,-435
21653.846153846156,-447
21661.53846153846,-485
21669.23076923077,-543
21676.923076923078,-475
21684.615384615387,-56
21692.30769230769,675
21700.0,1265
21707.69230769231,1169
21715.384615384617,250
21723.076923076922,-747
21730.76923076923,-939
21738.46153846154,-684
21746.153846153848,-653
21753.846153846156,-644
21761.53846153846,-532
21769.23076923077,-520
21776.923076923078,-548
21784.615384615387,-503
21792.30769230769,-466
21800.0,-468
21807.69230769231,-461
21815.384615384617,-445
21823.076923076922,-438
21830.76923076923,-417
21838.46153846154,-391
21846.153846153848,-379
21853.846153846156,-365
21861.53846153846,-344
21869.23076923077,-328
21876.923076923078,-297
21884.615384615387,-257
21892.30769230769,-229
21900.0,-210
21907.69230769231,-187
21915.384615384617,-164
21923.076923076922,-152
21930.76923076923,-150
21938.46153846154,-164
21946.153846153848,-206
21953.846153846156,-300
21961.53846153846,-417
21969.23076923077,-492
21976.923076923078,-517
21984.615384615387,-553
21992.30769230769,-611
22000.0,-667
22007.69230769231,-677
22015.384615384617,-630
22023.076923076922,-602
22030.76923076923,-602
22038.46153846154,-597
22046.153846153848,-588
22053.846153846156,-574
22061.53846153846,-553
22069.23076923077,-536
22076.923076923078,-527
22084.615384615387,-527
22092.30769230769,-522
22100.0,-506
22107.69230769231,-485
22115.384615384617,-475
22123.076923076922,-478
22130.76923076923,-480
22138.46153846154,-475
22146.153846153848,-466
22153.846153846156,-452
22161.53846153846,-445
22169.23076923077,-452
22176.923076923078,-464
22184.615384615387,-466
22192.30769230769,-450
22200.0,-438
22207.69230769231,-440
22215.384615384617,-445
22223.076923076922,-450
22230.76923076923,-447
22238.46153846154,-435
22246.153846153848,-428
22253.846153846156,-426
22261.53846153846,-426
22269.23076923077,-440
22276.923076923078,-440
22284.615384615387,-424
22292.30769230769,-417
22300.0,-417
22307.69230769231,-419
22315.384615384617,-428
22323.076923076922,-426
22330.76923076923,-412
22338.46153846154,-407
22346.153846153848,-410
22353.846153846156,-417
22361.53846153846,-433
22369.23076923077,-435
22376.923076923078,-426
22384.615384615387,-421
22392.30769230769,-417
22400.0,-405
22407.69230769231,-386
22415.384615384617,-365
22423.076923076922,-363
22430.76923076923,-375
22438.46153846154,-386
22446.153846153848,-407
22453.846153846156,-424
22461.53846153846,-438
22469.23076923077,-464
22476.923076923078,-487
22484.615384615387,-506
22492.30769230769,-560
22500.0,-529
22507.69230769231,-135
22515.384615384617,611
22523.076923076922,1258
22530.76923076923,1253
22538.46153846154,382
22546.153846153848,-717
22553.846153846156,-1003
22561.53846153846,-700
22569.23076923077,-639
22576.923076923078,-672
22584.615384615387,-567
22592.30769230769,-543
22600.0,-562
22607.69230769231,-508
22615.384615384617,-471
22623.076923076922,-475
22630.76923076923,-468
22638.46153846154,-452
22646.153846153848,-433
22653.846153846156,-407
22661.53846153846,-386
22669.23076923077,-377
22676.923076923078,-367
22684.615384615387,-349
22692.30769230769,-318
22700.0,-285
22707.69230769231,-253
22715.384615384617,-227
22723.076923076922,-208
22730.76923076923,-180
22738.46153846154,-150
22746.153846153848,-128
22753.846153846156,-124
22761.53846153846,-138
22769.23076923077,-175
22776.923076923078,-229
22784.615384615387,-290
22792.30769230769,-353
22800.0,-414
22807.69230769231,-468
22815.384615384617,-513
22823.076923076922,-536
22830.76923076923,-534
22838.46153846154,-527
22846.153846153848,-522
22853.846153846156,-525
22861.53846153846,-522
22869.23076923077,-515
22876.923076923078,-501
22884.615384615387,-489
22892.30769230769,-485
22900.0,-487
22907.69230769231,-489
22915.384615384617,-485
22923.076923076922,-471
22930.76923076923,-459
22938.46153846154,-457
22946.153846153848,-459
22953.846153846156,-454
22961.53846153846,-454
22969.23076923077,-475
22976.923076923078,-494
22984.615384615387,-480
22992.30769230769,-468
23000.0,-473
23007.69230769231,-468
23015.384615384617,-454
23023.076923076922,-447
23030.76923076923,-454
23038.46153846154,-454
23046.153846153848,-452
23053.846153846156,-450
23061.53846153846,-445
23069.23076923077,-440
23076.923076923078,-471
23084.615384615387,-506
23092.30769230769,-494
23100.0,-464
23107.69230769231,-459
23115.384615384617,-457
23123.076923076922,-454
23130.76923076923,-454
23138.46153846154,-447
23146.153846153848,-440
23153.846153846156,-433
23161.53846153846,-426
23169.23076923077,-431
23176.923076923078,-433
23184.615384615387,-426
23192.30769230769,-421
23200.0,-417
23207.69230769231,-412
23215.384615384617,-414
23223.076923076922,-414
23230.76923076923,-410
23238.46153846154,-410
23246.153846153848,-410
23253.846153846156,-405
23261.53846153846,-410
23269.23076923077,-417
23276.923076923078,-421
23284.615384615387,-424
23292.30769230769,-414
23300.0,-396
23307.69230769231,-377
23315.384615384617,-353
23323.076923076922,-351
23330.76923076923,-367
23338.46153846154,-377
23346.153846153848,-389
23353.846153846156,-400
23361.53846153846,-398
23369.23076923077,-398
23376.923076923078,-424
23384.615384615387,-461
23392.30769230769,-513
23400.0,-487
23407.69230769231,-142
23415.384615384617,560
23423.076923076922,1221
23430.76923076923,1303
23438.46153846154,546
23446.153846153848,-529
23453.846153846156,-911
23461.53846153846,-677
23469.23076923077,-611
23476.923076923078,-675
23484.615384615387,-600
23492.30769230769,-543
23500.0,-550
23507.69230769231,-525
23515.384615384617,-494
23523.076923076922,-485
23530.76923076923,-466
23538.46153846154,-445
23546.153846153848,-431
23553.846153846156,-414
23561.53846153846,-405
23569.23076923077,-391
23576.923076923078,-370
23584.615384615387,-346
23592.30769230769,-314
23600.0,-288
23607.69230769231,-274
23615.384615384617,-267
23623.076923076922,-264
23630.76923076923,-234
23638.46153846154,-182
23646.153846153848,-159
23653.846153846156,-159
23661.53846153846,-171
23669.23076923077,-187
23676.923076923078,-210
23684.615384615387,-262
23692.30769230769,-337
23700.0,-421
23707.69230769231,-485
23715.384615384617,-508
23723.076923076922,-508
23730.76923076923,-515
23738.46153846154,-534
23746.153846153848,-539
23753.846153846156,-513
23761.53846153846,-485
23769.23076923077,-475
23776.923076923078,-475
23784.615384615387,-475
23792.30769230769,-478
23800.0,-478
23807.69230769231,-473
23815.384615384617,-459
23823.076923076922,-447
23830.76923076923,-447
23838.46153846154,-450
23846.153846153848,-450
23853.846153846156,-445
23861.53846153846,-435
23869.23076923077,-428
23876.923076923078,-426
23884.615384615387,-431
23892.30769230769,-435
23900.0,-431
23907.69230769231,-419
23915.384615384617,-417
23923.076923076922,-421
23930.76923076923,-431
23938.46153846154,-433
23946.153846153848,-428
23953.846153846156,-424
23961.53846153846,-421
23969.23076923077,-421
23976.923076923078,-442
23984.615384615387,-468
23992.30769230769,-464
24000.0,-442
24007.69230769231,-438
24015.384615384617,-440
24023.076923076922,-440
24030.76923076923,-440
24038.46153846154,-431
24046.153846153848,-424
24053.846153846156,-417
24061.53846153846,-414
24069.23076923077,-428
24076.923076923078,-435
24084.615384615387,-419
24092.30769230769,-407
24100.0,-405
24107.69230769231,-410
24115.384615384617,-424
24123.076923076922,-431
24130.76923076923,-414
24138.46153846154,-405
24146.153846153848,-405
24153.846153846156,-407
24161.53846153846,-417
24169.23076923077,-417
24176.923076923078,-412
24184.615384615387,-417
24192.30769230769,-424
24200.0,-442
24207.69230769231,-473
24215.384615384617,-447
24223.076923076922,-384
24230.76923076923,-370
24238.46153846154,-386
24246.153846153848,-400
24253.846153846156,-424
24261.53846153846,-431
24269.23076923077,-412
24276.923076923078,-407
24284.615384615387,-431
24292.30769230769,-466
24300.0,-506
24307.69230769231,-503
24315.384615384617,-290
24323.076923076922,271
24330.76923076923,960
24338.46153846154,1258
24346.153846153848,761
24353.846153846156,-262
24361.53846153846,-853
24369.23076923077,-724
24376.923076923078,-595
24384.615384615387,-651
24392.30769230769,-590
24400.0,-520
24407.69230769231,-536
24415.384615384617,-520
24423.076923076922,-487
24430.76923076923,-487
24438.46153846154,-487
24446.153846153848,-457
24453.846153846156,-433
24461.53846153846,-426
24469.23076923077,-410
24476.923076923078,-405
24484.615384615387,-424
24492.30769230769,-419
24500.0,-375
24507.69230769231,-339
24515.384615384617,-318
24523.076923076922,-297
24530.76923076923,-271
24538.46153846154,-239
24546.153846153848,-208
24553.846153846156,-185
24561.53846153846,-168
24569.23076923077,-171
24576.923076923078,-185
24584.615384615387,-215
24592.30769230769,-260
24600.0,-321
24607.69230769231,-396
24615.384615384617,-464
24623.076923076922,-510
24630.76923076923,-534
24638.46153846154,-546
24646.153846153848,-557
24653.846153846156,-560
24661.53846153846,-553
24669.23076923077,-543
24676.923076923078,-529
24684.615384615387,-522
24692.30769230769,-520
24700.0,-508
24707.69230769231,-492
24715.384615384617,-501
24723.076923076922,-520
24730.76923076923,-503
24738.46153846154,-487
24746.153846153848,-494
24753.846153846156,-499
24761.53846153846,-499
24769.23076923077,-494
24776.923076923078,-485
24784.615384615387,-492
24792.30769230769,-532
24800.0,-543
24807.69230769231,-517
24815.384615384617,-499
24823.076923076922,-499
24830.76923076923,-501
24838.46153846154,-499
24846.153846153848,-499
24853.846153846156,-501
24861.53846153846,-494
24869.23076923077,-480
24876.923076923078,-482
24884.615384615387,-489
24892.30769230769,-485
24900.0,-482
24907.69230769231,-480
24915.384615384617,-473
24923.076923076922,-475
24930.76923076923,-475
24938.46153846154,-468
24946.153846153848,-468
24953.846153846156,-471
24961.53846153846,-464
24969.23076923077,-459
24976.923076923078,-461
24984.615384615387,-478
24992.30769230769,-508
25000.0,-506
25007.69230769231,-471
25015.384615384617,-468
25023.076923076922,-489
25030.76923076923,-487
25038.46153846154,-473
25046.153846153848,-461
25053.846153846156,-454
25061.53846153846,-459
25069.23076923077,-452
25076.923076923078,-454
25084.615384615387,-482
25092.30769230769,-489
25100.0,-464
25107.69230769231,-447
25115.384615384617,-431
25123.076923076922,-403
25130.76923076923,-407
25138.46153846154,-428
25146.153846153848,-438
25153.846153846156,-438
25161.53846153846,-431
25169.23076923077,-435
25176.923076923078,-464
25184.615384615387,-480
25192.30769230769,-499
25200.0,-550
25207.69230769231,-480
25215.384615384617,-51
25223.076923076922,646
25230.76923076923,1129
25238.46153846154,907
25246.153846153848,-18
25253.846153846156,-855
25261.53846153846,-932
25269.23076923077,-714
25276.923076923078,-696
25284.615384615387,-649
25292.30769230769,-532
25300.0,-529
25307.69230769231,-550
25315.384615384617,-508
25323.076923076922,-499
25330.76923076923,-536
25338.46153846154,-541
25346.153846153848,-489
25353.846153846156,-457
25361.53846153846,-461
25369.23076923077,-442
25376.923076923078,-407
25384.615384615387,-386
25392.30769230769,-363
25400.0,-339
25407.69230769231,-300
25415.384615384617,-246
25423.076923076922,-232
25430.76923076923,-236
25438.46153846154,-217
25446.153846153848,-206
25453.846153846156,-192
25461.53846153846,-175
25469.23076923077,-178
25476.923076923078,-199
25484.615384615387,-243
25492.30769230769,-325
25500.0,-433
25507.69230769231,-525
25515.384615384617,-557
25523.076923076922,-576
25530.76923076923,-604
25538.46153846154,-604
25546.153846153848,-602
25553.846153846156,-611
25561.53846153846,-592
25569.23076923077,-560
25576.923076923078,-553
25584.615384615387,-564
25592.30769230769,-567
25600.0,-560
25607.69230769231,-539
25615.384615384617,-506
25623.076923076922,-478
25630.76923076923,-480
25638.46153846154,-499
25646.153846153848,-506
25653.846153846156,-496
25661.53846153846,-480
25669.23076923077,-473
25676.923076923078,-482
25684.615384615387,-492
25692.30769230769,-494
25700.0,-492
25707.69230769231,-480
25715.384615384617,-473
25723.076923076922,-482
25730.76923076923,-492
25738.46153846154,-492
25746.153846153848,-480
25753.846153846156,-471
25761.53846153846,-468
25769.23076923077,-473
25776.923076923078,-480
25784.615384615387,-475
25792.30769230769,-457
25800.0,-459
25807.69230769231,-468
25815.384615384617,-459
25823.076923076922,-468
25830.76923076923,-482
25838.46153846154,-468
25846.153846153848,-454
25853.846153846156,-450
25861.53846153846,-471
25869.23076923077,-522
25876.923076923078,-515
25884.615384615387,-450
25892.30769230769,-433
25900.0,-457
25907.69230769231,-464
25915.384615384617,-478
25923.076923076922,-482
25930.76923076923,-461
25938.46153846154,-452
25946.153846153848,-482
25953.846153846156,-536
25961.53846153846,-590
25969.23076923077,-480
25976.923076923078,25
25984.615384615387,775
25992.30769230769,1242
26000.0,960
26007.69230769231,-56
26015.384615384617,-918
26023.076923076922,-909
26030.76923076923,-653
26038.46153846154,-667
26046.153846153848,-642
26053.846153846156,-550
26061.53846153846,-543
26069.23076923077,-527
26076.923076923078,-485
26084.615384615387,-487
26092.30769230769,-492
26100.0,-475
26107.69230769231,-459
26115.384615384617,-445
26123.076923076922,-431
26130.76923076923,-412
26138.46153846154,-391
26146.153846153848,-382
26153.846153846156,-370
26161.53846153846,-335
26169.23076923077,-297
26176.923076923078,-264
26184.615384615387,-243
26192.30769230769,-222
26200.0,-185
26207.69230769231,-157
26215.384615384617,-164
26223.076923076922,-173
26230.76923076923,-182
26238.46153846154,-229
26246.153846153848,-292
26253.846153846156,-351
26261.53846153846,-412
26269.23076923077,-473
26276.923076923078,-527
26284.615384615387,-564
26292.30769230769,-569
26300.0,-557
26307.69230769231,-557
26315.384615384617,-557
26323.076923076926,-560
26330.76923076923,-553
26338.46153846154,-534
26346.153846153848,-520
26353.846153846156,-513
26361.53846153846,-508
26369.23076923077,-515
26376.923076923078,-513
26384.615384615387,-496
26392.30769230769,-480
26400.0,-473
26407.69230769231,-471
26415.384615384617,-473
26423.076923076926,-471
26430.76923076923,-461
26438.46153846154,-450
26446.153846153848,-450
26453.846153846156,-489
26461.53846153846,-532
26469.23076923077,-513
26476.923076923078,-478
26484.615384615387,-473
26492.30769230769,-468
26500.0,-464
26507.69230769231,-494
26515.384615384617,-515
26523.076923076926,-487
26530.76923076923,-459
26538.46153846154,-466
26546.153846153848,-471
26553.846153846156,-466
26561.53846153846,-464
26569.23076923077,-454
26576.923076923078,-433
26584.615384615387,-431
26592.30769230769,-442
26600.0,-447
26607.69230769231,-445
26615.384615384617,-440
26623.076923076926,-440
26630.76923076923,-447
26638.46153846154,-450
26646.153846153848,-433
26653.846153846156,-398
26661.53846153846,-370
26669.23076923077,-367
26676.923076923078,-382
26684.615384615387,-400
26692.30769230769,-412
26700.0,-410
26707.69230769231,-400
26715.384615384617,-405
26723.076923076926,-431
26730.76923076923,-471
26738.46153846154,-513
26746.153846153848,-485
26753.846153846156,-166
26761.53846153846,499
26769.23076923077,1117
26776.923076923078,1160
26784.615384615387,405
26792.30769230769,-588
26800.0,-900
26807.69230769231,-658
26815.384615384617,-600
26823.076923076926,-628
26830.76923076923,-520
26838.46153846154,-489
26846.153846153848,-517
26853.846153846156,-480
26861.53846153846,-454
26869.23076923077,-459
26876.923076923078,-440
26884.615384615387,-421
26892.30769230769,-412
26900.0,-398
26907.69230769231,-389
26915.384615384617,-372
26923.076923076926,-349
26930.76923076923,-335
26938.46153846154,-314
26946.153846153848,-290
26953.846153846156,-269
26961.53846153846,-241
26969.23076923077,-203
26976.923076923078,-178
26984.615384615387,-161
26992.30769230769,-161
27000.0,-192
27007.69230769231,-222
27015.384615384617,-246
27023.076923076926,-283
27030.76923076923,-332
27038.46153846154,-398
27046.153846153848,-464
27053.846153846156,-503
27061.53846153846,-532
27069.23076923077,-560
27076.923076923078,-564
27084.615384615387,-560
27092.30769230769,-555
27100.0,-539
27107.69230769231,-527
27115.384615384617,-522
27123.076923076926,-515
27130.76923076923,-508
27138.46153846154,-503
27146.153846153848,-489
27153.846153846156,-478
27161.53846153846,-473
27169.23076923077,-466
27176.923076923078,-464
27184.615384615387,-464
27192.30769230769,-452
27200.0,-445
27207.69230769231,-447
27215.384615384617,-445
27223.076923076926,-445
27230.76923076923,-442
27238.46153846154,-433
27246.153846153848,-431
27253.846153846156,-433
27261.53846153846,-433
27269.23076923077,-433
27276.923076923078,-431
27284.615384615387,-424
27292.30769230769,-424
27300.0,-426
27307.69230769231,-426
27315.384615384617,-424
27323.076923076926,-419
27330.76923076923,-414
27338.46153846154,-412
27346.153846153848,-414
27353.846153846156,-417
27361.53846153846,-419
27369.23076923077,-417
27376.923076923078,-414
27384.615384615387,-421
27392.30769230769,-426
27400.0,-421
27407.69230769231,-403
27415.384615384617,-365
27423.076923076926,-344
27430.76923076923,-356
27438.46153846154,-377
27446.153846153848,-396
27453.846153846156,-400
27461.53846153846,-393
27469.23076923077,-391
27476.923076923078,-410
27484.615384615387,-447
27492.30769230769,-494
27500.0,-529
27507.69230769231,-396
27515.384615384617,93
27523.076923076926,794
27530.76923076923,1214
27538.46153846154,888
27546.153846153848,-107
27553.846153846156,-867
27561.53846153846,-822
27569.23076923077,-618
27576.923076923078,-672
27584.615384615387,-660
27592.30769230769,-555
27600.0,-534
27607.69230769231,-532
27615.384615384617,-492
27623.076923076926,-482
27630.76923076923,-480
27638.46153846154,-445
27646.153846153848,-417
27653.846153846156,-407
27661.53846153846,-396
27669.23076923077,-384
27676.923076923078,-372
27684.615384615387,-346
27692.30769230769,-316
27700.0,-292
27707.69230769231,-264
27715.384615384617,-243
27723.076923076926,-217
27730.76923076923,-175
27738.46153846154,-135
27746.153846153848,-117
27753.846153846156,-112
27761.53846153846,-126
27769.23076923077,-145
27776.923076923078,-168
27784.615384615387,-217
27792.30769230769,-290
27800.0,-372
27807.69230769231,-442
27815.384615384617,-482
27823.076923076926,-501
27830.76923076923,-513
27838.46153846154,-515
27846.153846153848,-520
27853.846153846156,-527
27861.53846153846,-520
27869.23076923077,-499
27876.923076923078,-482
27884.615384615387,-473
27892.30769230769,-478
27900.0,-489
27907.69230769231,-480
27915.384615384617,-459
27923.076923076926,-447
27930.76923076923,-445
27938.46153846154,-442
27946.153846153848,-447
27953.846153846156,-442
27961.53846153846,-431
27969.23076923077,-424
27976.923076923078,-424
27984.615384615387,-433
27992.30769230769,-435
28000.0,-426
28007.69230769231,-421
28015.384615384617,-440
28023.076923076926,-471
28030.76923076923,-475
28038.46153846154,-457
28046.153846153848,-445
28053.846153846156,-438
28061.53846153846,-428
28069.23076923077,-428
28076.923076923078,-435
28084.615384615387,-435
28092.30769230769,-424
28100.0,-412
28107.69230769231,-407
28115.384615384617,-410
28123.076923076926,-424
28130.76923076923,-440
28138.46153846154,-438
28146.153846153848,-428
28153.846153846156,-407
28161.53846153846,-384
28169.23076923077,-405
28176.923076923078,-426
28184.615384615387,-410
28192.30769230769,-410
28200.0,-419
28207.69230769231,-412
28215.384615384617,-414
28223.076923076926,-431
28230.76923076923,-445
28238.46153846154,-466
28246.153846153848,-499
28253.846153846156,-389
28261.53846153846,84
28269.23076923077,794
28276.923076923078,1235
28284.615384615387,937
28292.30769230769,-49
28300.0,-862
28307.69230769231,-860
28315.384615384617,-625
28323.076923076926,-628
28330.76923076923,-569
28338.46153846154,-450
28346.153846153848,-466
28353.846153846156,-489
28361.53846153846,-447
28369.23076923077,-424
28376.923076923078,-417
28384.615384615387,-396
28392.30769230769,-386
28400.0,-382
28407.69230769231,-363
28415.384615384617,-337
28423.076923076926,-318
28430.76923076923,-304
28438.46153846154,-290
28446.153846153848,-271
28453.846153846156,-246
28461.53846153846,-210
28469.23076923077,-173
28476.923076923078,-145
28484.615384615387,-131
28492.30769230769,-117
28500.0,-110
28507.69230769231,-112
28515.384615384617,-126
28523.076923076926,-180
28530.76923076923,-269
28538.46153846154,-346
28546.153846153848,-403
28553.846153846156,-452
28561.53846153846,-489
28569.23076923077,-520
28576.923076923078,-539
28584.615384615387,-536
28592.30769230769,-529
28600.0,-520
28607.69230769231,-508
28615.384615384617,-503
28623.076923076926,-503
28630.76923076923,-496
28638.46153846154,-489
28646.153846153848,-478
28653.846153846156,-464
28661.53846153846,-461
28669.23076923077,-457
28676.923076923078,-445
28684.615384615387,-445
28692.30769230769,-440
28700.0,-442
28707.69230769231,-480
28715.384615384617,-496
28723.076923076926,-464
28730.76923076923,-450
28738.46153846154,-452
28746.153846153848,-445
28753.846153846156,-442
28761.53846153846,-440
28769.23076923077,-435
28776.923076923078,-435
28784.615384615387,-431
28792.30769230769,-426
28800.0,-431
28807.69230769231,-428
28815.384615384617,-417
28823.076923076926,-414
28830.76923076923,-414
28838.46153846154,-417
28846.153846153848,-419
28853.846153846156,-410
28861.53846153846,-405
28869.23076923077,-414
28876.923076923078,-421
28884.615384615387,-428
28892.30769230769,-428
28900.0,-414
28907.69230769231,-386
28915.384615384617,-358
28923.076923076926,-346
28930.76923076923,-360
28938.46153846154,-375
28946.153846153848,-379
28953.846153846156,-384
28961.53846153846,-391
28969.23076923077,-396
28976.923076923078,-412
28984.615384615387,-447
28992.30769230769,-489
29000.0,-503
29007.69230769231,-288
29015.384615384617,328
29023.076923076926,1059
29030.76923076923,1328
29038.46153846154,771
29046.153846153848,-295
29053.846153846156,-895
29061.53846153846,-731
29069.23076923077,-571
29076.923076923078,-628
29084.615384615387,-560
29092.30769230769,-487
29100.0,-517
29107.69230769231,-503
29115.384615384617,-461
29123.076923076926,-457
29130.76923076923,-440
29138.46153846154,-414
29146.153846153848,-412
29153.846153846156,-405
29161.53846153846,-386
29169.23076923077,-370
29176.923076923078,-346
29184.615384615387,-321
29192.30769230769,-307
29200.0,-290
29207.69230769231,-262
29215.384615384617,-225
29223.076923076926,-189
29230.76923076923,-164
29238.46153846154,-150
29246.153846153848,-168
29253.846153846156,-192
29261.53846153846,-175
29269.23076923077,-166
29276.923076923078,-208
29284.615384615387,-281
29292.30769230769,-351
29300.0,-407
29307.69230769231,-450
29315.384615384617,-482
29323.076923076926,-508
29330.76923076923,-525
29338.46153846154,-527
29346.153846153848,-517
29353.846153846156,-501
29361.53846153846,-487
29369.23076923077,-480
29376.923076923078,-482
29384.615384615387,-485
29392.30769230769,-471
29400.0,-454
29407.69230769231,-452
29415.384615384617,-450
29423.076923076926,-452
29430.76923076923,-454
29438.46153846154,-445
29446.153846153848,-428
29453.846153846156,-421
29461.53846153846,-424
29469.23076923077,-433
29476.923076923078,-433
29484.615384615387,-419
29492.30769230769,-410
29500.0,-410
29507.69230769231,-412
29515.384615384617,-419
29523.076923076926,-431
29530.76923076923,-445
29538.46153846154,-457
29546.153846153848,-442
29553.846153846156,-428
29561.53846153846,-440
29569.23076923077,-438
29576.923076923078,-419
29584.615384615387,-407
29592.30769230769,-407
29600.0,-410
29607.69230769231,-417
29615.384615384617,-414
29623.076923076926,-398
29630.76923076923,-391
29638.46153846154,-391
29646.153846153848,-396
29653.846153846156,-405
29661.53846153846,-403
29669.23076923077,-391
29676.923076923078,-391
29684.615384615387,-403
29692.30769230769,-407
29700.0,-412
29707.69230769231,-398
29715.384615384617,-351
29723.076923076926,-325
29730.76923076923,-335
29738.46153846154,-358
29746.153846153848,-382
29753.846153846156,-389
29761.53846153846,-379
29769.23076923077,-375
29776.923076923078,-386
29784.615384615387,-419
29792.30769230769,-466
29800.0,-499
29807.69230769231,-407
29815.384615384617,2
29823.076923076926,700
29830.76923076923,1237
29838.46153846154,1075
29846.153846153848,154
29853.846153846156,-750
29861.53846153846,-855
29869.23076923077,-609
29876.923076923078,-614
29884.615384615387,-616
29892.30769230769,-501
29900.0,-489
29907.69230769231,-503
29915.384615384617,-461
29923.076923076926,-447
29930.76923076923,-454
29938.46153846154,-426
29946.153846153848,-398
29953.846153846156,-389
29961.53846153846,-377
29969.23076923077,-367
29976.923076923078,-358
29984.615384615387,-332
29992.30769230769,-304
30000.0,-278
30007.69230769231,-257
30015.384615384617,-239
30023.076923076926,-213
30030.76923076923,-178
30038.46153846154,-164
30046.153846153848,-166
30053.846153846156,-152
30061.53846153846,-140
30069.23076923077,-152
30076.923076923078,-173
30084.615384615387,-213
30092.30769230769,-281
30100.0,-353
30107.69230769231,-424
30115.384615384617,-473
30123.076923076926,-496
30130.76923076923,-508
30138.46153846154,-513
30146.153846153848,-515
30153.846153846156,-517
30161.53846153846,-510
30169.23076923077,-494
30176.923076923078,-475
30184.615384615387,-468
30192.30769230769,-471
30200.0,-471
30207.69230769231,-466
30215.384615384617,-457
30223.076923076926,-445
30230.76923076923,-440
30238.46153846154,-445
30246.153846153848,-445
30253.846153846156,-438
30261.53846153846,-433
30269.23076923077,-424
30276.923076923078,-419
30284.615384615387,-421
30292.30769230769,-426
30300.0,-424
30307.69230769231,-417
30315.384615384617,-407
30323.076923076926,-410
30330.76923076923,-417
30338.46153846154,-414
30346.153846153848,-412
30353.846153846156,-412
30361.53846153846,-410
30369.23076923077,-433
30376.923076923078,-466
30384.615384615387,-459
30392.30769230769,-433
30400.0,-428
30407.69230769231,-421
30415.384615384617,-417
30423.076923076926,-419
30430.76923076923,-414
30438.46153846154,-407
30446.153846153848,-405
30453.846153846156,-403
30461.53846153846,-403
30469.23076923077,-403
30476.923076923078,-398
30484.615384615387,-398
30492.30769230769,-393
30500.0,-389
30507.69230769231,-393
30515.384615384617,-389
30523.076923076926,-379
30530.76923076923,-389
30538.46153846154,-419
30546.153846153848,-450
30553.846153846156,-445
30561.53846153846,-407
30569.23076923077,-370
30576.923076923078,-356
30584.615384615387,-353
30592.30769230769,-365
30600.0,-389
30607.69230769231,-393
30615.384615384617,-382
30623.076923076926,-382
30630.76923076923,-389
30638.46153846154,-410
30646.153846153848,-452
30653.846153846156,-487
30661.53846153846,-424
30669.23076923077,-67
30676.923076923078,602
30684.615384615387,1188
30692.30769230769,1169
30700.0,360
30707.69230769231,-625
30715.384615384617,-871
30723.076923076926,-611
30730.76923076923,-574
30738.46153846154,-600
30746.153846153848,-487
30753.846153846156,-461
30761.53846153846,-492
30769.23076923077,-450
30776.923076923078,-421
30784.615384615387,-433
30792.30769230769,-414
30800.0,-389
30807.69230769231,-386
30815.384615384617,-372
30823.076923076926,-356
30830.76923076923,-344
30838.46153846154,-318
30846.153846153848,-297
30853.846153846156,-285
30861.53846153846,-267
30869.23076923077,-236
30876.923076923078,-208
30884.615384615387,-178
30892.30769230769,-150
30900.0,-133
30907.69230769231,-121
30915.384615384617,-114
30923.076923076926,-114
30930.76923076923,-133
30938.46153846154,-187
30946.153846153848,-262
30953.846153846156,-353
30961.53846153846,-452
30969.23076923077,-496
30976.923076923078,-499
30984.615384615387,-522
30992.30769230769,-548
31000.0,-550
31007.69230769231,-541
31015.384615384617,-525
31023.076923076926,-503
31030.76923076923,-494
31038.46153846154,-501
31046.153846153848,-520
31053.846153846156,-527
31061.53846153846,-503
31069.23076923077,-475
31076.923076923078,-473
31084.615384615387,-475
31092.30769230769,-468
31100.0,-457
31107.69230769231,-447
31115.384615384617,-438
31123.076923076926,-438
31130.76923076923,-440
31138.46153846154,-442
31146.153846153848,-433
31153.846153846156,-417
31161.53846153846,-417
31169.23076923077,-421
31176.923076923078,-421
31184.615384615387,-426
31192.30769230769,-421
31200.0,-407
31207.69230769231,-407
31215.384615384617,-412
31223.076923076926,-407
31230.76923076923,-412
31238.46153846154,-407
31246.153846153848,-384
31253.846153846156,-379
31261.53846153846,-396
31269.23076923077,-407
31276.923076923078,-398
31284.615384615387,-382
31292.30769230769,-370
31300.0,-367
31307.69230769231,-367
31315.384615384617,-377
31323.076923076926,-379
31330.76923076923,-372
31338.46153846154,-365
31346.153846153848,-365
31353.846153846156,-367
31361.53846153846,-375
31369.23076923077,-379
31376.923076923078,-370
31384.615384615387,-363
31392.30769230769,-363
31400.0,-365
31407.69230769231,-379
31415.384615384617,-391
31423.076923076926,-386
31430.76923076923,-372
31438.46153846154,-363
31446.153846153848,-344
31453.846153846156,-328
31461.53846153846,-325
31469.23076923077,-321
31476.923076923078,-335
31484.615384615387,-365
31492.30769230769,-391
31500.0,-428
31507.69230769231,-445
31515.384615384617,-424
31523.076923076926,-440
31530.76923076923,-482
31538.46153846154,-447
31546.153846153848,-157
31553.846153846156,468
31561.53846153846,1089
31569.23076923077,1195
31576.923076923078,529
31584.615384615387,-480
31592.30769230769,-892
31600.0,-667
31607.69230769231,-564
31615.384615384617,-600
31623.076923076926,-513
31630.76923076923,-478
31638.46153846154,-517
31646.153846153848,-482
31653.846153846156,-433
31661.53846153846,-431
31669.23076923077,-421
31676.923076923078,-407
31684.615384615387,-403
31692.30769230769,-382
31700.0,-358
31707.69230769231,-344
31715.384615384617,-328
31723.076923076926,-314
31730.76923076923,-304
31738.46153846154,-278
31746.153846153848,-239
31753.846153846156,-206
31761.53846153846,-182
31769.23076923077,-166
31776.923076923078,-150
31784.615384615387,-126
31792.30769230769,-110
31800.0,-110
31807.69230769231,-131
31815.384615384617,-175
31823.076923076926,-234
31830.76923076923,-290
31838.46153846154,-346
31846.153846153848,-400
31853.846153846156,-447
31861.53846153846,-485
31869.23076923077,-496
31876.923076923078,-492
31884.615384615387,-487
31892.30769230769,-485
31900.0,-482
31907.69230769231,-480
31915.384615384617,-473
31923.076923076926,-461
31930.76923076923,-452
31938.46153846154,-450
31946.153846153848,-450
31953.846153846156,-452
31961.53846153846,-447
31969.23076923077,-435
31976.923076923078,-426
31984.615384615387,-424
31992.30769230769,-428
32000.0,-433
32007.69230769231,-431
32015.384615384617,-421
32023.076923076926,-412
32030.76923076923,-412
32038.46153846154,-421
32046.153846153848,-426
32053.846153846156,-433
32061.53846153846,-457
32069.23076923077,-466
32076.923076923078,-461
32084.615384615387,-487
32092.30769230769,-506
32100.0,-471
32107.69230769231,-445
32115.384615384617,-447
32123.076923076926,-445
32130.76923076923,-442
32138.46153846154,-440
32146.153846153848,-431
32153.846153846156,-419
32161.53846153846,-414
32169.23076923077,-414
32176.923076923078,-412
32184.615384615387,-410
32192.30769230769,-407
32200.0,-403
32207.69230769231,-393
32215.384615384617,-391
32223.076923076926,-396
32230.76923076923,-393
32238.46153846154,-393
32246.153846153848,-393
32253.846153846156,-386
32261.53846153846,-384
32269.23076923077,-391
32276.923076923078,-391
32284.615384615387,-398
32292.30769230769,-403
32300.0,-398
32307.69230769231,-391
32315.384615384617,-375
32323.076923076926,-344
32330.76923076923,-330
32338.46153846154,-337
32346.153846153848,-353
32353.846153846156,-377
32361.53846153846,-384
32369.23076923077,-375
32376.923076923078,-377
32384.615384615387,-384
32392.30769230769,-393
32400.0,-431
32407.69230769231,-475
32415.384615384617,-398
32423.076923076926,-4
32430.76923076923,667
32438.46153846154,1183
32446.153846153848,1040
32453.846153846156,164
32461.53846153846,-719
32469.23076923077,-853
32476.923076923078,-623
32484.615384615387,-604
32492.30769230769,-585
32500.0,-468
32507.69230769231,-454
32515.384615384617,-482
32523.076923076926,-442
32530.76923076923,-419
32538.46153846154,-426
32546.153846153848,-407
32553.846153846156,-384
32561.53846153846,-393
32569.23076923077,-410
32576.923076923078,-400
32584.615384615387,-363
32592.30769230769,-335
32600.0,-318
32607.69230769231,-297
32615.384615384617,-276
32623.076923076926,-283
32630.76923076923,-276
32638.46153846154,-213
32646.153846153848,-168
32653.846153846156,-159
32661.53846153846,-140
32669.23076923077,-128
32676.923076923078,-140
32684.615384615387,-157
32692.30769230769,-199
32700.0,-267
32707.69230769231,-339
32715.384615384617,-400
32723.076923076926,-450
32730.76923076923,-482
32738.46153846154,-508
32746.153846153848,-529
32753.846153846156,-536
32761.53846153846,-534
32769.23076923077,-522
32776.92307692308,-506
32784.61538461538,-496
32792.307692307695,-496
32800.0,-496
32807.69230769231,-485
32815.38461538462,-466
32823.07692307692,-454
32830.769230769234,-452
32838.46153846154,-452
32846.153846153844,-447
32853.846153846156,-442
32861.53846153846,-435
32869.23076923077,-419
32876.92307692308,-414
32884.61538461538,-431
32892.307692307695,-440
32900.0,-431
32907.69230769231,-421
32915.38461538462,-414
32923.07692307692,-414
32930.769230769234,-421
32938.46153846154,-428
32946.153846153844,-426
32953.846153846156,-414
32961.53846153846,-410
32969.23076923077,-412
32976.92307692308,-414
32984.61538461538,-419
32992.307692307695,-419
33000.0,-410
33007.69230769231,-400
33015.38461538462,-403
33023.07692307692,-414
33030.769230769234,-417
33038.46153846154,-405
33046.153846153844,-400
33053.846153846156,-398
33061.53846153846,-400
33069.23076923077,-414
33076.92307692308,-442
33084.61538461538,-461
33092.307692307695,-440
33100.0,-419
33107.69230769231,-405
33115.38461538462,-382
33123.07692307692,-367
33130.769230769234,-370
33138.46153846154,-375
33146.153846153844,-386
33153.846153846156,-407
33161.53846153846,-440
33169.23076923077,-466
33176.92307692308,-447
33184.61538461538,-438
33192.307692307695,-475
33200.0,-525
33207.69230769231,-447
33215.38461538462,-7
33223.07692307692,731
33230.769230769234,1256
33238.46153846154,1064
33246.153846153844,138
33253.846153846156,-766
33261.53846153846,-878
33269.23076923077,-621
33276.92307692308,-595
33284.61538461538,-581
33292.307692307695,-478
33300.0,-482
33307.69230769231,-499
33315.38461538462,-440
33323.07692307692,-414
33330.769230769234,-421
33338.46153846154,-407
33346.153846153844,-396
33353.846153846156,-384
33361.53846153846,-358
33369.23076923077,-339
33376.92307692308,-325
33384.61538461538,-311
33392.307692307695,-302
33400.0,-278
33407.69230769231,-243
33415.38461538462,-210
33423.07692307692,-180
33430.769230769234,-159
33438.46153846154,-145
33446.153846153844,-121
33453.846153846156,-98
33461.53846153846,-96
33469.23076923077,-114
33476.92307692308,-154
33484.61538461538,-217
33492.307692307695,-283
33500.0,-344
33507.69230769231,-403
33515.38461538462,-450
33523.07692307692,-489
33530.769230769234,-513
33538.46153846154,-510
33546.153846153844,-496
33553.846153846156,-487
33561.53846153846,-487
33569.23076923077,-492
33576.92307692308,-503
33584.61538461538,-520
33592.307692307695,-520
33600.0,-494
33607.69230769231,-475
33615.38461538462,-482
33623.07692307692,-478
33630.769230769234,-454
33638.46153846154,-438
33646.153846153844,-428
33653.846153846156,-426
33661.53846153846,-431
33669.23076923077,-426
33676.92307692308,-414
33684.61538461538,-410
33692.307692307695,-407
33700.0,-410
33707.69230769231,-421
33715.38461538462,-424
33723.07692307692,-412
33730.769230769234,-407
33738.46153846154,-410
33746.153846153844,-438
33753.846153846156,-475
33761.53846153846,-464
33769.23076923077,-426
33776.92307692308,-419
33784.61538461538,-421
33792.307692307695,-419
33800.0,-424
33807.69230769231,-419
33815.38461538462,-405
33823.07692307692,-398
33830.769230769234,-396
33838.46153846154,-396
33846.153846153844,-400
33853.846153846156,-398
33861.53846153846,-391
33869.23076923077,-382
33876.92307692308,-379
33884.61538461538,-384
33892.307692307695,-386
33900.0,-384
33907.69230769231,-377
33915.38461538462,-375
33923.07692307692,-382
33930.769230769234,-391
33938.46153846154,-386
33946.153846153844,-377
33953.846153846156,-356
33961.53846153846,-323
33969.23076923077,-314
33976.92307692308,-328
33984.61538461538,-342
33992.307692307695,-353
34000.0,-363
34007.69230769231,-356
34015.38461538462,-356
34023.07692307692,-382
34030.769230769234,-412
34038.46153846154,-454
34046.153846153844,-473
34053.846153846156,-281
34061.53846153846,292
34069.23076923077,1007
34076.92307692308,1345
34084.61538461538,900
34092.307692307695,-161
34100.0,-869
34107.69230769231,-754
34115.38461538462,-560
34123.07692307692,-616
34130.769230769234,-567
34138.46153846154,-478
34146.153846153844,-496
34153.846153846156,-494
34161.53846153846,-450
34169.23076923077,-435
34176.92307692308,-435
34184.61538461538,-412
34192.307692307695,-391
34200.0,-386
34207.69230769231,-372
34215.38461538462,-349
34223.07692307692,-332
34230.769230769234,-316
34238.46153846154,-292
34246.153846153844,-278
34253.846153846156,-253
34261.53846153846,-217
34269.23076923077,-189
34276.92307692308,-161
34284.61538461538,-133
34292.307692307695,-117
34300.0,-105
34307.69230769231,-103
34315.38461538462,-119
34323.07692307692,-150
34330.769230769234,-222
34338.46153846154,-325
34346.153846153844,-389
34353.846153846156,-419
34361.53846153846,-468
34369.23076923077,-503
34376.92307692308,-510
34384.61538461538,-517
34392.307692307695,-513
34400.0,-499
34407.69230769231,-494
34415.38461538462,-487
34423.07692307692,-475
34430.769230769234,-468
34438.46153846154,-459
34446.153846153844,-452
34453.846153846156,-450
34461.53846153846,-445
34469.23076923077,-442
34476.92307692308,-440
34484.61538461538,-426
34492.307692307695,-417
34500.0,-419
34507.69230769231,-419
34515.38461538462,-414
34523.07692307692,-412
34530.769230769234,-403
34538.46153846154,-396
34546.153846153844,-398
34553.846153846156,-400
34561.53846153846,-400
34569.23076923077,-400
34576.92307692308,-391
34584.61538461538,-391
34592.307692307695,-414
34600.0,-445
34607.69230769231,-440
34615.38461538462,-410
34623.07692307692,-398
34630.769230769234,-403
34638.46153846154,-403
34646.153846153844,-398
34653.846153846156,-393
34661.53846153846,-389
34669.23076923077,-379
34676.92307692308,-377
34684.61538461538,-384
34692.307692307695,-384
34700.0,-379
34707.69230769231,-375
34715.38461538462,-365
34723.07692307692,-365
34730.769230769234,-372
34738.46153846154,-372
34746.153846153844,-370
34753.846153846156,-365
34761.53846153846,-358
34769.23076923077,-360
34776.92307692308,-370
34784.61538461538,-372
34792.307692307695,-367
34800.0,-360
34807.69230769231,-356
34815.38461538462,-360
34823.07692307692,-370
34830.769230769234,-382
34838.46153846154,-382
34846.153846153844,-367
34853.846153846156,-351
34861.53846153846,-339
34869.23076923077,-346
34876.92307692308,-370
34884.61538461538,-375
34892.307692307695,-358
34900.0,-365
34907.69230769231,-377
34915.38461538462,-377
34923.07692307692,-379
34930.769230769234,-384
34938.46153846154,-396
34946.153846153844,-431
34953.846153846156,-471
34961.53846153846,-375
34969.23076923077,79
34976.92307692308,801
34984.61538461538,1305
34992.307692307695,1110
35000.0,178
35007.69230769231,-714
35015.38461538462,-794
35023.07692307692,-541
35030.769230769234,-550
35038.46153846154,-550
35046.153846153844,-459
35053.846153846156,-473
35061.53846153846,-489
35069.23076923077,-431
35076.92307692308,-405
35084.61538461538,-405
35092.307692307695,-403
35100.0,-417
35107.69230769231,-417
35115.38461538462,-377
35123.07692307692,-346
35130.769230769234,-330
35138.46153846154,-311
35146.153846153844,-302
35153.846153846156,-283
35161.53846153846,-246
35169.23076923077,-215
35176.92307692308,-187
35184.61538461538,-159
35192.307692307695,-138
35200.0,-117
35207.69230769231,-93
35215.38461538462,-84
35223.07692307692,-91
35230.769230769234,-117
35238.46153846154,-161
35246.153846153844,-217
35253.846153846156,-281
35261.53846153846,-349
35269.23076923077,-400
35276.92307692308,-447
35284.61538461538,-487
35292.307692307695,-489
35300.0,-471
35307.69230769231,-466
35315.38461538462,-468
35323.07692307692,-471
35330.769230769234,-471
35338.46153846154,-452
35346.153846153844,-426
35353.846153846156,-417
35361.53846153846,-426
35369.23076923077,-442
35376.92307692308,-440
35384.61538461538,-421
35392.307692307695,-414
35400.0,-414
35407.69230769231,-412
35415.38461538462,-414
35423.07692307692,-419
35430.769230769234,-403
35438.46153846154,-389
35446.153846153844,-393
35453.846153846156,-414
35461.53846153846,-459
35469.23076923077,-478
35476.92307692308,-445
35484.61538461538,-419
35492.307692307695,-417
35500.0,-414
35507.69230769231,-421
35515.38461538462,-417
35523.07692307692,-398
35530.769230769234,-391
35538.46153846154,-396
35546.153846153844,-398
35553.846153846156,-407
35561.53846153846,-407
35569.23076923077,-391
35576.92307692308,-382
35584.61538461538,-389
35592.307692307695,-398
35600.0,-405
35607.69230769231,-428
35615.38461538462,-438
35623.07692307692,-417
35630.769230769234,-400
35638.46153846154,-407
35646.153846153844,-412
35653.846153846156,-403
35661.53846153846,-393
35669.23076923077,-386
35676.92307692308,-379
35684.61538461538,-384
35692.307692307695,-384
35700.0,-382
35707.69230769231,-379
35715.38461538462,-372
35723.07692307692,-367
35730.769230769234,-372
35738.46153846154,-377
35746.153846153844,-377
35753.846153846156,-375
35761.53846153846,-375
35769.23076923077,-384
35776.92307692308,-382
35784.61538461538,-370
35792.307692307695,-349
35800.0,-328
35807.69230769231,-318
35815.38461538462,-328
35823.07692307692,-342
35830.769230769234,-351
35838.46153846154,-363
35846.153846153844,-365
35853.846153846156,-356
35861.53846153846,-365
35869.23076923077,-400
35876.92307692308,-452
35884.61538461538,-494
35892.307692307695,-323
35900.0,236
35907.69230769231,958
35915.38461538462,1345
35923.07692307692,970
35930.769230769234,-58
35938.46153846154,-808
35946.153846153844,-740
35953.846153846156,-557
35961.53846153846,-609
35969.23076923077,-555
35976.92307692308,-466
35984.61538461538,-482
35992.307692307695,-492
36000.0,-492
36007.69230769231,-496
36015.38461538462,-459
36023.07692307692,-426
36030.769230769234,-412
36038.46153846154,-396
36046.153846153844,-382
36053.846153846156,-365
36061.53846153846,-339
36069.23076923077,-318
36076.92307692308,-300
36084.61538461538,-278
36092.307692307695,-255
36100.0,-225
36107.69230769231,-196
36115.38461538462,-196
36123.07692307692,-192
36130.769230769234,-152
36138.46153846154,-124
36146.153846153844,-119
36153.846153846156,-121
36161.53846153846,-138
36169.23076923077,-180
36176.92307692308,-248
36184.61538461538,-328
36192.307692307695,-389
36200.0,-431
36207.69230769231,-471
36215.38461538462,-494
36223.07692307692,-513
36230.769230769234,-520
36238.46153846154,-503
36246.153846153844,-494
36253.846153846156,-501
36261.53846153846,-494
36269.23076923077,-475
36276.92307692308,-468
36284.61538461538,-464
36292.307692307695,-457
36300.0,-452
36307.69230769231,-450
36315.38461538462,-445
36323.07692307692,-438
36330.769230769234,-424
36338.46153846154,-419
36346.153846153844,-424
36353.846153846156,-417
36361.53846153846,-405
36369.23076923077,-407
36376.92307692308,-424
36384.61538461538,-428
36392.307692307695,-417
36400.0,-405
36407.69230769231,-405
36415.38461538462,-405
36423.07692307692,-398
36430.769230769234,-391
36438.46153846154,-396
36446.153846153844,-407
36453.846153846156,-403
36461.53846153846,-389
36469.23076923077,-384
36476.92307692308,-386
36484.61538461538,-393
36492.307692307695,-403
36500.0,-403
36507.69230769231,-389
36515.38461538462,-377
36523.07692307692,-382
36530.769230769234,-398
36538.46153846154,-424
36546.153846153844,-452
36553.846153846156,-445
36561.53846153846,-417
36569.23076923077,-407
36576.92307692308,-417
36584.61538461538,-421
36592.307692307695,-419
36600.0,-419
36607.69230769231,-412
36615.38461538462,-410
36623.07692307692,-421
36630.769230769234,-403
36638.46153846154,-365
36646.153846153844,-365
36653.846153846156,-384
36661.53846153846,-396
36669.23076923077,-400
36676.92307692308,-396
36684.61538461538,-393
36692.307692307695,-393
36700.0,-407
36707.69230769231,-440
36715.38461538462,-480
36723.07692307692,-349
36730.769230769234,171
36738.46153846154,892
36746.153846153844,1267
36753.846153846156,878
36761.53846153846,-135
36769.23076923077,-874
36776.92307692308,-803
36784.61538461538,-583
36792.307692307695,-600
36800.0,-539
36807.69230769231,-442
36815.38461538462,-464
36823.07692307692,-459
36830.769230769234,-400
36838.46153846154,-384
36846.153846153844,-391
36853.846153846156,-384
36861.53846153846,-375
36869.23076923077,-365
36876.92307692308,-339
36884.61538461538,-307
36892.307692307695,-300
36900.0,-302
36907.69230769231,-278
36915.38461538462,-239
36923.07692307692,-203
36930.769230769234,-168
36938.46153846154,-152
36946.153846153844,-147
36953.846153846156,-114
36961.53846153846,-77
36969.23076923077,-77
36976.92307692308,-86
36984.61538461538,-93
36992.307692307695,-124
37000.0,-185
37007.69230769231,-255
37015.38461538462,-321
37023.07692307692,-384
37030.769230769234,-447
37038.46153846154,-482
37046.153846153844,-494
37053.846153846156,-506
37061.53846153846,-499
37069.23076923077,-482
37076.92307692308,-482
37084.61538461538,-492
37092.307692307695,-487
37100.0,-478
37107.69230769231,-461
37115.38461538462,-442
37123.07692307692,-461
37130.769230769234,-499
37138.46153846154,-487
37146.153846153844,-442
37153.846153846156,-419
37161.53846153846,-424
37169.23076923077,-461
37176.92307692308,-496
37184.61538461538,-466
37192.307692307695,-424
37200.0,-426
37207.69230769231,-428
37215.38461538462,-424
37223.07692307692,-426
37230.769230769234,-417
37238.46153846154,-403
37246.153846153844,-396
37253.846153846156,-396
37261.53846153846,-407
37269.23076923077,-414
37276.92307692308,-407
37284.61538461538,-393
37292.307692307695,-384
37300.0,-379
37307.69230769231,-389
37315.38461538462,-396
37323.07692307692,-386
37330.769230769234,-372
37338.46153846154,-365
37346.153846153844,-370
37353.846153846156,-377
37361.53846153846,-377
37369.23076923077,-370
37376.92307692308,-356
37384.61538461538,-353
37392.307692307695,-367
37400.0,-377
37407.69230769231,-365
37415.38461538462,-353
37423.07692307692,-353
37430.769230769234,-356
37438.46153846154,-363
37446.153846153844,-372
37453.846153846156,-375
37461.53846153846,-363
37469.23076923077,-353
37476.92307692308,-344
37484.61538461538,-321
37492.307692307695,-304
37500.0,-314
37507.69230769231,-325
37515.38461538462,-339
37523.07692307692,-346
37530.769230769234,-346
37538.46153846154,-351
37546.153846153844,-375
37553.846153846156,-407
37561.53846153846,-447
37569.23076923077,-466
37576.92307692308,-290
37584.61538461538,269
37592.307692307695,1010
37600.0,1373
37607.69230769231,958
37615.38461538462,-82
37623.07692307692,-834
37630.769230769234,-789
37638.46153846154,-597
37646.153846153844,-614
37653.846153846156,-550
37661.53846153846,-471
37669.23076923077,-494
37676.92307692308,-485
37684.61538461538,-442
37692.307692307695,-428
37700.0,-417
37707.69230769231,-426
37715.38461538462,-452
37723.07692307692,-426
37730.769230769234,-386
37738.46153846154,-370
37746.153846153844,-349
37753.846153846156,-328
37761.53846153846,-318
37769.23076923077,-292
37776.92307692308,-255
37784.61538461538,-225
37792.307692307695,-194
37800.0,-166
37807.69230769231,-140
37815.38461538462,-114
37823.07692307692,-105
37830.769230769234,-105
37838.46153846154,-110
37846.153846153844,-138
37853.846153846156,-185
37861.53846153846,-243
37869.23076923077,-309
37876.92307692308,-370
37884.61538461538,-428
37892.307692307695,-478
37900.0,-485
37907.69230769231,-473
37915.38461538462,-482
37923.07692307692,-487
37930.769230769234,-466
37938.46153846154,-447
37946.153846153844,-454
37953.846153846156,-468
37961.53846153846,-457
37969.23076923077,-431
37976.92307692308,-431
37984.61538461538,-440
37992.307692307695,-426
38000.0,-412
38007.69230769231,-414
38015.38461538462,-410
38023.07692307692,-407
38030.769230769234,-407
38038.46153846154,-398
38046.153846153844,-391
38053.846153846156,-389
38061.53846153846,-389
38069.23076923077,-398
38076.92307692308,-398
38084.61538461538,-386
38092.307692307695,-379
38100.0,-386
38107.69230769231,-391
38115.38461538462,-391
38123.07692307692,-396
38130.769230769234,-405
38138.46153846154,-428
38146.153846153844,-428
38153.846153846156,-410
38161.53846153846,-407
38169.23076923077,-403
38176.92307692308,-384
38184.61538461538,-384
38192.307692307695,-391
38200.0,-382
38207.69230769231,-379
38215.38461538462,-379
38223.07692307692,-370
38230.769230769234,-367
38238.46153846154,-377
38246.153846153844,-400
38253.846153846156,-428
38261.53846153846,-417
38269.23076923077,-389
38276.92307692308,-389
38284.61538461538,-393
38292.307692307695,-389
38300.0,-393
38307.69230769231,-391
38315.38461538462,-379
38323.07692307692,-375
38330.769230769234,-375
38338.46153846154,-367
38346.153846153844,-344
38353.846153846156,-314
38361.53846153846,-304
38369.23076923077,-318
38376.92307692308,-337
38384.61538461538,-351
38392.307692307695,-353
38400.0,-349
38407.69230769231,-346
38415.38461538462,-360
38423.07692307692,-396
38430.769230769234,-447
38438.46153846154,-445
38446.153846153844,-192
38453.846153846156,419
38461.53846153846,1092
38469.23076923077,1314
38476.92307692308,745
38484.61538461538,-314
38492.307692307695,-862
38500.0,-660
38507.69230769231,-520
38515.38461538462,-581
38523.07692307692,-506
38530.769230769234,-428
38538.46153846154,-452
38546.153846153844,-435
38553.846153846156,-396
38561.53846153846,-403
38569.23076923077,-403
38576.92307692308,-372
38584.61538461538,-351
38592.307692307695,-342
38600.0,-332
38607.69230769231,-330
38615.38461538462,-318
38623.07692307692,-288
38630.769230769234,-262
38638.46153846154,-257
38646.153846153844,-260
38653.846153846156,-236
38661.53846153846,-189
38669.23076923077,-152
38676.92307692308,-119
38684.61538461538,-91
38692.307692307695,-84
38700.0,-96
38707.69230769231,-110
38715.38461538462,-133
38723.07692307692,-182
38730.769230769234,-243
38738.46153846154,-311
38746.153846153844,-382
38753.846153846156,-433
38761.53846153846,-457
38769.23076923077,-466
38776.92307692308,-471
38784.61538461538,-499
38792.307692307695,-541
38800.0,-534
38807.69230769231,-485
38815.38461538462,-464
38823.07692307692,-461
38830.769230769234,-457
38838.46153846154,-457
38846.153846153844,-447
38853.846153846156,-428
38861.53846153846,-424
38869.23076923077,-414
38876.92307692308,-412
38884.61538461538,-424
38892.307692307695,-417
38900.0,-396
38907.69230769231,-391
38915.38461538462,-391
38923.07692307692,-393
38930.769230769234,-400
38938.46153846154,-396
38946.153846153844,-384
38953.846153846156,-379
38961.53846153846,-375
38969.23076923077,-375
38976.92307692308,-382
38984.61538461538,-377
38992.307692307695,-367
39000.0,-365
39007.69230769231,-365
39015.38461538462,-367
39023.07692307692,-377
39030.769230769234,-372
39038.46153846154,-358
39046.153846153844,-353
39053.846153846156,-353
39061.53846153846,-363
39069.23076923077,-365
39076.92307692308,-353
39084.61538461538,-346
39092.307692307695,-346
39100.0,-344
39107.69230769231,-356
39115.38461538462,-367
39123.07692307692,-358
39130.769230769234,-337
39138.46153846154,-337
39146.153846153844,-367
39153.846153846156,-396
39161.53846153846,-396
39169.23076923077,-379
39176.92307692308,-375
39184.61538461538,-375
39192.307692307695,-370
39200.0,-367
39207.69230769231,-356
39215.38461538462,-318
39223.07692307692,-295
39230.769230769234,-304
39238.46153846154,-323
39246.153846153844,-339
39253.846153846156,-351
39261.53846153846,-346
39269.23076923077,-339
39276.92307692308,-346
39284.61538461538,-377
39292.307692307695,-414
39300.0,-452
39307.69230769231,-393
39315.38461538462,-35
39323.07692307692,635
39330.769230769234,1221
39338.46153846154,1204
39346.153846153844,400
39353.846153846156,-581
39361.53846153846,-829
39369.23076923077,-600
39376.92307692308,-607
39384.61538461538,-639
39392.307692307695,-496
39400.0,-459
39407.69230769231,-492
39415.38461538462,-452
39423.07692307692,-421
39430.769230769234,-421
39438.46153846154,-403
39446.153846153844,-375
39453.846153846156,-358
39461.53846153846,-344
39469.23076923077,-335
39476.92307692308,-323
39484.61538461538,-307
39492.307692307695,-281
39500.0,-255
39507.69230769231,-239
39515.38461538462,-217
39523.07692307692,-182
39530.769230769234,-152
39538.46153846154,-126
39546.153846153844,-98
39553.846153846156,-79
39561.53846153846,-77
39569.23076923077,-79
39576.92307692308,-96
39584.61538461538,-131
39592.307692307695,-180
39600.0,-257
39607.69230769231,-337
39615.38461538462,-389
39623.07692307692,-426
39630.769230769234,-454
39638.46153846154,-466
39646.153846153844,-487
39653.846153846156,-515
39661.53846153846,-527
39669.23076923077,-501
39676.92307692308,-471
39684.61538461538,-457
39692.307692307695,-454
39700.0,-452
39707.69230769231,-447
39715.38461538462,-440
39723.07692307692,-426
39730.769230769234,-419
39738.46153846154,-421
39746.153846153844,-410
39753.846153846156,-398
39761.53846153846,-403
39769.23076923077,-400
39776.92307692308,-396
39784.61538461538,-400
39792.307692307695,-396
39800.0,-389
39807.69230769231,-389
39815.38461538462,-382
39823.07692307692,-384
39830.769230769234,-398
39838.46153846154,-391
39846.153846153844,-379
39853.846153846156,-379
39861.53846153846,-379
39869.23076923077,-382
39876.92307692308,-382
39884.61538461538,-372
39892.307692307695,-370
39900.0,-375
39907.69230769231,-379
39915.38461538462,-414
39923.07692307692,-440
39930.769230769234,-412
39938.46153846154,-384
39946.153846153844,-386
39953.846153846156,-382
39961.53846153846,-379
39969.23076923077,-386
39976.92307692308,-379
39984.61538461538,-360
39992.307692307695,-356
40000.0,-363
40007.69230769231,-372
40015.38461538462,-370
40023.07692307692,-365
40030.769230769234,-375
40038.46153846154,-379
40046.153846153844,-370
40053.846153846156,-344
40061.53846153846,-302
40069.23076923077,-288
40076.92307692308,-314
40084.61538461538,-337
40092.307692307695,-346
40100.0,-353
40107.69230769231,-346
40115.38461538462,-344
40123.07692307692,-363
40130.769230769234,-389
40138.46153846154,-426
40146.153846153844,-440
40153.846153846156,-246
40161.53846153846,297
40169.23076923077,975
40176.92307692308,1286
40184.61538461538,822
40192.307692307695,-232
40200.0,-897
40207.69230769231,-752
40215.38461538462,-560
40223.07692307692,-600
40230.769230769234,-520
40238.46153846154,-424
40246.153846153844,-450
40253.846153846156,-438
40261.53846153846,-396
40269.23076923077,-400
40276.92307692308,-400
40284.61538461538,-367
40292.307692307695,-342
40300.0,-328
40307.69230769231,-316
40315.38461538462,-309
40323.07692307692,-295
40330.769230769234,-269
40338.46153846154,-241
40346.153846153844,-217
40353.846153846156,-199
40361.53846153846,-182
40369.23076923077,-152
40376.92307692308,-114
40384.61538461538,-86
40392.307692307695,-70
40400.0,-63
40407.69230769231,-65
40415.38461538462,-79
40423.07692307692,-105
40430.769230769234,-154
40438.46153846154,-222
40446.153846153844,-304
40453.846153846156,-410
40461.53846153846,-489
40469.23076923077,-501
40476.92307692308,-494
40484.61538461538,-503
40492.307692307695,-503
40500.0,-506
40507.69230769231,-503
40515.38461538462,-485
40523.07692307692,-471
40530.769230769234,-457
40538.46153846154,-450
40546.153846153844,-457
40553.846153846156,-450
40561.53846153846,-431
40569.23076923077,-421
40576.92307692308,-414
40584.61538461538,-407
40592.307692307695,-412
40600.0,-407
40607.69230769231,-391
40615.38461538462,-384
40623.07692307692,-382
40630.769230769234,-382
40638.46153846154,-391
40646.153846153844,-391
40653.846153846156,-384
40661.53846153846,-389
40669.23076923077,-410
40676.92307692308,-426
40684.61538461538,-419
40692.307692307695,-403
40700.0,-389
40707.69230769231,-382
40715.38461538462,-379
40723.07692307692,-382
40730.769230769234,-386
40738.46153846154,-382
40746.153846153844,-370
40753.846153846156,-360
40761.53846153846,-356
