timestamp,ecg
0.0,-68
7.6923076923076925,-73
15.384615384615385,-80
23.076923076923077,-90
30.76923076923077,-90
38.46153846153846,-85
46.15384615384615,-85
53.84615384615385,-83
61.53846153846154,-76
69.23076923076923,-73
76.92307692307692,-78
84.61538461538461,-78
92.3076923076923,-68
100.0,-64
107.6923076923077,-66
115.38461538461539,-73
123.07692307692308,-76
130.76923076923077,-78
138.46153846153845,-71
146.15384615384616,-61
153.84615384615384,-68
161.53846153846155,-80
169.23076923076923,-73
176.92307692307693,-61
184.6153846153846,-73
192.30769230769232,-90
200.0,-83
207.6923076923077,-76
215.3846153846154,-80
223.0769230769231,-78
230.76923076923077,-64
238.46153846153848,-68
246.15384615384616,-173
253.84615384615384,-432
261.53846153846155,-817
269.2307692307692,-1005
276.9230769230769,-456
284.61538461538464,280
292.3076923076923,156
300.0,-211
307.6923076923077,-97
315.3846153846154,-7
323.0769230769231,-109
330.7692307692308,-111
338.46153846153845,-78
346.1538461538462,-104
353.84615384615387,-99
361.53846153846155,-90
369.2307692307692,-114
376.9230769230769,-114
384.61538461538464,-87
392.3076923076923,-97
400.0,-118
407.6923076923077,-102
415.3846153846154,-85
423.0769230769231,-97
430.7692307692308,-102
438.46153846153845,-95
446.1538461538462,-73
453.84615384615387,-52
461.53846153846155,-38
469.2307692307692,-28
476.92307692307696,-23
484.61538461538464,-11
492.3076923076923,0
500.0,-7
507.6923076923077,-19
515.3846153846154,-21
523.0769230769231,-28
530.7692307692308,-28
538.4615384615385,-9
546.1538461538462,9
553.8461538461538,9
561.5384615384615,4
569.2307692307693,4
576.9230769230769,0
584.6153846153846,-2
592.3076923076924,-2
600.0,-19
607.6923076923077,-42
615.3846153846154,-52
623.0769230769231,-61
630.7692307692308,-76
638.4615384615385,-83
646.1538461538462,-95
653.8461538461538,-116
661.5384615384615,-130
669.2307692307693,-114
676.9230769230769,-80
684.6153846153846,-54
692.3076923076924,-59
700.0,-92
707.6923076923077,-106
715.3846153846154,-95
723.0769230769231,-80
730.7692307692308,-71
738.4615384615385,-68
746.1538461538462,-66
753.8461538461538,-64
761.5384615384615,-71
769.2307692307693,-68
776.9230769230769,-52
784.6153846153846,-40
792.3076923076924,-40
800.0,-47
807.6923076923077,-54
815.3846153846154,-54
823.0769230769231,-57
830.7692307692308,-76
838.4615384615385,-73
846.1538461538462,-54
853.8461538461539,-52
861.5384615384615,-52
869.2307692307693,-49
876.9230769230769,-45
884.6153846153846,-38
892.3076923076924,-128
900.0,-437
907.6923076923077,-900
915.3846153846154,-1047
923.0769230769231,-396
930.7692307692308,278
938.4615384615385,85
946.1538461538462,-201
953.8461538461539,-23
961.5384615384615,47
969.2307692307693,-73
976.9230769230769,-73
984.6153846153846,-28
992.3076923076924,-47
1000.0,-52
1007.6923076923077,-40
1015.3846153846154,-52
1023.0769230769231,-64
1030.7692307692307,-68
1038.4615384615386,-73
1046.1538461538462,-78
1053.8461538461538,-97
1061.5384615384617,-104
1069.2307692307693,-97
1076.923076923077,-95
1084.6153846153848,-83
1092.3076923076924,-64
1100.0,-45
1107.6923076923076,-33
1115.3846153846155,-26
1123.076923076923,-26
1130.7692307692307,-28
1138.4615384615386,-30
1146.1538461538462,-38
1153.8461538461538,-47
1161.5384615384617,-47
1169.2307692307693,-42
1176.923076923077,-33
1184.6153846153848,-23
1192.3076923076924,-33
1200.0,-42
1207.6923076923076,-23
1215.3846153846155,-4
1223.076923076923,-9
1230.7692307692307,-14
1238.4615384615386,-14
1246.1538461538462,-26
1253.8461538461538,-30
1261.5384615384617,-35
1269.2307692307693,-68
1276.923076923077,-99
1284.6153846153848,-95
1292.3076923076924,-80
1300.0,-78
1307.6923076923076,-83
1315.3846153846155,-78
1323.076923076923,-76
1330.7692307692307,-85
1338.4615384615386,-85
1346.1538461538462,-73
1353.8461538461538,-71
1361.5384615384617,-71
1369.2307692307693,-68
1376.923076923077,-66
1384.6153846153848,-66
1392.3076923076924,-59
1400.0,-52
1407.6923076923076,-42
1415.3846153846155,-40
1423.076923076923,-57
1430.7692307692307,-71
1438.4615384615386,-71
1446.1538461538462,-78
1453.8461538461538,-85
1461.5384615384617,-78
1469.2307692307693,-78
1476.923076923077,-78
1484.6153846153848,-73
1492.3076923076924,-68
1500.0,-73
1507.6923076923076,-78
1515.3846153846155,-73
1523.076923076923,-64
1530.7692307692307,-59
1538.4615384615386,-61
1546.1538461538462,-52
1553.8461538461538,-52
1561.5384615384617,-154
1569.2307692307693,-408
1576.923076923077,-784
1584.6153846153848,-898
1592.3076923076924,-285
1600.0,337
1607.6923076923076,109
1615.3846153846155,-180
1623.076923076923,-14
1630.7692307692307,33
1638.4615384615386,-76
1646.1538461538462,-47
1653.8461538461538,-4
1661.5384615384617,-30
1669.2307692307693,-35
1676.923076923077,-30
1684.6153846153848,-52
1692.3076923076924,-57
1700.0,-40
1707.6923076923078,-45
1715.3846153846155,-57
1723.076923076923,-64
1730.7692307692307,-78
1738.4615384615386,-90
1746.1538461538462,-78
1753.8461538461538,-59
1761.5384615384617,-57
1769.2307692307693,-47
1776.923076923077,-35
1784.6153846153848,-30
1792.3076923076924,-21
1800.0,-11
1807.6923076923078,-14
1815.3846153846155,-28
1823.076923076923,-45
1830.7692307692307,-57
1838.4615384615386,-57
1846.1538461538462,-38
1853.8461538461538,-16
1861.5384615384617,-9
1869.2307692307693,-4
1876.923076923077,4
1884.6153846153848,11
1892.3076923076924,16
1900.0,19
1907.6923076923078,9
1915.3846153846155,0
1923.076923076923,0
1930.7692307692307,-14
1938.4615384615386,-38
1946.1538461538462,-54
1953.8461538461538,-59
1961.5384615384617,-59
1969.2307692307693,-57
1976.923076923077,-52
1984.6153846153848,-49
1992.3076923076924,-47
2000.0,-49
2007.6923076923078,-52
2015.3846153846155,-40
2023.076923076923,-30
2030.7692307692307,-30
2038.4615384615386,-28
2046.1538461538462,-30
2053.846153846154,-35
2061.5384615384614,-30
2069.2307692307695,-23
2076.923076923077,-21
2084.6153846153848,-23
2092.3076923076924,-30
2100.0,-35
2107.6923076923076,-23
2115.3846153846152,-19
2123.0769230769233,-33
2130.769230769231,-35
2138.4615384615386,-38
2146.153846153846,-47
2153.846153846154,-38
2161.5384615384614,-21
2169.2307692307695,-23
2176.923076923077,-28
2184.6153846153848,-35
2192.3076923076924,-35
2200.0,-30
2207.6923076923076,-28
2215.3846153846152,-23
2223.0769230769233,-26
2230.769230769231,-33
2238.4615384615386,-33
2246.153846153846,-19
2253.846153846154,-35
2261.5384615384614,-194
2269.2307692307695,-539
2276.923076923077,-902
2284.6153846153848,-691
2292.3076923076924,121
2300.0,377
2307.6923076923076,-40
2315.3846153846152,-125
2323.0769230769233,26
2330.769230769231,-35
2338.4615384615386,-80
2346.153846153846,-33
2353.846153846154,-38
2361.5384615384614,-57
2369.2307692307695,-47
2376.923076923077,-47
2384.6153846153848,-49
2392.3076923076924,-40
2400.0,-35
2407.6923076923076,-49
2415.3846153846152,-59
2423.0769230769233,-57
2430.769230769231,-54
2438.4615384615386,-52
2446.153846153846,-42
2453.846153846154,-38
2461.5384615384614,-35
2469.2307692307695,-21
2476.923076923077,-2
2484.6153846153848,9
2492.3076923076924,14
2500.0,11
2507.6923076923076,4
2515.3846153846152,-2
2523.0769230769233,-7
2530.769230769231,-14
2538.4615384615386,-14
2546.153846153846,-11
2553.846153846154,-7
2561.5384615384614,7
2569.2307692307695,28
2576.923076923077,33
2584.6153846153848,28
2592.3076923076924,30
2600.0,33
2607.6923076923076,21
2615.3846153846152,0
2623.0769230769233,-19
2630.769230769231,-35
2638.4615384615386,-45
2646.153846153846,-47
2653.846153846154,-42
2661.5384615384614,-40
2669.2307692307695,-52
2676.923076923077,-61
2684.6153846153848,-54
2692.3076923076924,-54
2700.0,-66
2707.6923076923076,-76
2715.3846153846152,-68
2723.0769230769233,-61
2730.769230769231,-59
2738.4615384615386,-61
2746.153846153846,-59
2753.846153846154,-52
2761.5384615384614,-49
2769.2307692307695,-57
2776.923076923077,-61
2784.6153846153848,-57
2792.3076923076924,-57
2800.0,-59
2807.6923076923076,-54
2815.3846153846152,-54
2823.0769230769233,-59
2830.769230769231,-57
2838.4615384615386,-52
2846.153846153846,-61
2853.846153846154,-92
2861.5384615384614,-114
2869.2307692307695,-97
2876.923076923077,-87
2884.6153846153848,-92
2892.3076923076924,-78
2900.0,-68
2907.6923076923076,-80
2915.3846153846152,-76
2923.0769230769233,-66
2930.769230769231,-68
2938.4615384615386,-66
2946.153846153846,-57
2953.846153846154,-54
2961.5384615384614,-57
2969.2307692307695,-59
2976.923076923077,-49
2984.6153846153848,-28
2992.3076923076924,-76
3000.0,-294
3007.6923076923076,-634
3015.3846153846152,-919
3023.0769230769233,-679
3030.769230769231,116
3038.4615384615386,373
3046.153846153846,-47
3053.846153846154,-128
3061.5384615384614,52
3069.2307692307695,-7
3076.923076923077,-78
3084.6153846153848,-30
3092.3076923076924,-23
3100.0,-47
3107.6923076923076,-42
3115.3846153846152,-47
3123.0769230769233,-66
3130.769230769231,-78
3138.4615384615386,-78
3146.153846153846,-73
3153.846153846154,-76
3161.5384615384614,-80
3169.2307692307695,-78
3176.923076923077,-78
3184.6153846153848,-90
3192.3076923076924,-92
3200.0,-78
3207.6923076923076,-66
3215.3846153846152,-52
3223.0769230769233,-40
3230.769230769231,-38
3238.4615384615386,-35
3246.153846153846,-26
3253.846153846154,-23
3261.5384615384614,-38
3269.2307692307695,-45
3276.923076923077,-33
3284.6153846153848,-23
3292.3076923076924,-26
3300.0,-19
3307.6923076923076,-11
3315.3846153846157,-4
3323.0769230769233,4
3330.769230769231,14
3338.4615384615386,9
3346.153846153846,-9
3353.846153846154,-30
3361.5384615384614,-42
3369.2307692307695,-47
3376.923076923077,-61
3384.6153846153848,-73
3392.3076923076924,-87
3400.0,-106
3407.6923076923076,-114
3415.3846153846157,-104
3423.0769230769233,-102
3430.769230769231,-102
3438.4615384615386,-92
3446.153846153846,-97
3453.846153846154,-97
3461.5384615384614,-85
3469.2307692307695,-76
3476.923076923077,-76
3484.6153846153848,-78
3492.3076923076924,-73
3500.0,-66
3507.6923076923076,-64
3515.3846153846157,-61
3523.0769230769233,-54
3530.769230769231,-59
3538.4615384615386,-66
3546.153846153846,-52
3553.846153846154,-38
3561.5384615384614,-42
3569.2307692307695,-47
3576.923076923077,-54
3584.6153846153848,-54
3592.3076923076924,-42
3600.0,-83
3607.6923076923076,-130
3615.3846153846157,-71
3623.0769230769233,-19
3630.769230769231,-52
3638.4615384615386,-42
3646.153846153846,-7
3653.846153846154,-33
3661.5384615384614,-68
3669.2307692307695,-71
3676.923076923077,-40
3684.6153846153848,-16
3692.3076923076924,-30
3700.0,-40
3707.6923076923076,-40
3715.3846153846157,-76
3723.0769230769233,-180
3730.769230769231,-439
3738.4615384615386,-841
3746.153846153846,-843
3753.846153846154,-92
3761.5384615384614,384
3769.2307692307695,42
3776.923076923077,-135
3784.6153846153848,45
3792.3076923076924,26
3800.0,-68
3807.6923076923076,-16
3815.3846153846157,33
3823.0769230769233,-9
3830.769230769231,-19
3838.4615384615386,2
3846.153846153846,-38
3853.846153846154,-76
3861.5384615384614,-78
3869.2307692307695,-97
3876.923076923077,-99
3884.6153846153848,-64
3892.3076923076924,-59
3900.0,-78
3907.6923076923076,-76
3915.3846153846157,-73
3923.0769230769233,-68
3930.769230769231,-42
3938.4615384615386,-28
3946.153846153846,-30
3953.846153846154,-19
3961.5384615384614,-21
3969.2307692307695,-45
3976.923076923077,-59
3984.6153846153848,-64
3992.3076923076924,-52
4000.0,-33
4007.6923076923076,-19
4015.3846153846157,-7
4023.0769230769233,7
4030.769230769231,11
4038.4615384615386,16
4046.153846153846,21
4053.846153846154,0
4061.5384615384614,0
4069.2307692307695,21
4076.923076923077,2
4084.6153846153848,-21
4092.3076923076924,-4
4100.0,2
4107.692307692308,-16
4115.384615384615,-28
4123.076923076923,-38
4130.7692307692305,-49
4138.461538461539,-42
4146.153846153847,-35
4153.846153846154,-52
4161.538461538462,-57
4169.2307692307695,0
4176.923076923077,68
4184.615384615385,66
4192.307692307692,-4
4200.0,-59
4207.692307692308,-59
4215.384615384615,-68
4223.076923076923,-54
4230.7692307692305,-9
4238.461538461539,-33
4246.153846153847,-76
4253.846153846154,-49
4261.538461538462,-16
4269.2307692307695,-14
4276.923076923077,-9
4284.615384615385,-11
4292.307692307692,-30
4300.0,-30
4307.692307692308,-9
4315.384615384615,-2
4323.076923076923,-4
4330.7692307692305,2
4338.461538461539,11
4346.153846153847,23
4353.846153846154,42
4361.538461538462,19
4369.2307692307695,-57
4376.923076923077,-68
4384.615384615385,4
4392.307692307692,30
4400.0,-2
4407.692307692308,-45
4415.384615384615,-185
4423.076923076923,-480
4430.7692307692305,-800
4438.461538461539,-791
4446.153846153847,-178
4453.846153846154,335
4461.538461538462,116
4469.2307692307695,-142
4476.923076923077,-28
4484.615384615385,11
4492.307692307692,-57
4500.0,-35
4507.692307692308,-7
4515.384615384615,-23
4523.076923076923,-19
4530.7692307692305,-2
4538.461538461539,-4
4546.153846153847,-9
4553.846153846154,-21
4561.538461538462,-54
4569.2307692307695,-90
4576.923076923077,-80
4584.615384615385,-49
4592.307692307692,-57
4600.0,-66
4607.692307692308,-49
4615.384615384615,-47
4623.076923076923,-33
4630.7692307692305,9
4638.461538461539,30
4646.153846153847,33
4653.846153846154,30
4661.538461538462,19
4669.2307692307695,19
4676.923076923077,28
4684.615384615385,26
4692.307692307692,21
4700.0,11
4707.692307692308,-4
4715.384615384615,-4
4723.076923076923,23
4730.7692307692305,42
4738.461538461539,47
4746.153846153847,49
4753.846153846154,54
4761.538461538462,52
4769.2307692307695,30
4776.923076923077,14
4784.615384615385,11
4792.307692307692,-16
4800.0,-28
4807.692307692308,11
4815.384615384615,9
4823.076923076923,-30
4830.7692307692305,-30
4838.461538461539,-19
4846.153846153847,-11
4853.846153846154,14
4861.538461538462,26
4869.2307692307695,4
4876.923076923077,-26
4884.615384615385,-35
4892.307692307692,-14
4900.0,4
4907.692307692308,9
4915.384615384615,21
4923.076923076923,40
4930.7692307692305,28
4938.461538461539,-7
4946.153846153847,-11
4953.846153846154,9
4961.538461538462,11
4969.2307692307695,7
4976.923076923077,0
4984.615384615385,-2
4992.307692307692,30
5000.0,57
5007.692307692308,26
5015.384615384615,0
5023.076923076923,0
5030.7692307692305,7
5038.461538461539,16
5046.153846153847,9
5053.846153846154,4
5061.538461538462,26
5069.2307692307695,45
5076.923076923077,-14
5084.615384615385,-240
5092.307692307692,-601
5100.0,-881
5107.692307692308,-605
5115.384615384615,133
5123.076923076923,335
5130.7692307692305,-9
5138.461538461539,-59
5146.153846153847,71
5153.846153846154,28
5161.538461538462,-19
5169.2307692307695,28
5176.923076923077,57
5184.615384615385,14
5192.307692307692,-45
5200.0,-54
5207.692307692308,-30
5215.384615384615,-23
5223.076923076923,-45
5230.7692307692305,-54
5238.461538461539,-45
5246.153846153847,-30
5253.846153846154,-9
5261.538461538462,-4
5269.2307692307695,-26
5276.923076923077,-14
5284.615384615385,16
5292.307692307692,-54
5300.0,-130
5307.692307692308,-61
5315.384615384615,2
5323.076923076923,-21
5330.7692307692305,-30
5338.461538461539,-19
5346.153846153847,-23
5353.846153846154,-16
5361.538461538462,9
5369.2307692307695,21
5376.923076923077,0
5384.615384615385,-19
5392.307692307692,9
5400.0,42
5407.692307692308,40
5415.384615384615,40
5423.076923076923,40
5430.7692307692305,26
5438.461538461539,19
5446.153846153847,26
5453.846153846154,30
5461.538461538462,2
5469.2307692307695,-52
5476.923076923077,-78
5484.615384615385,-76
5492.307692307692,-71
5500.0,-66
5507.692307692308,-68
5515.384615384615,-66
5523.076923076923,-59
5530.7692307692305,-61
5538.461538461539,-64
5546.153846153847,-47
5553.846153846154,-42
5561.538461538462,-52
5569.2307692307695,-54
5576.923076923077,-68
5584.615384615385,-83
5592.307692307692,-83
5600.0,-97
5607.692307692308,-109
5615.384615384615,-92
5623.076923076923,-85
5630.7692307692305,-90
5638.461538461539,-87
5646.153846153847,-97
5653.846153846154,-111
5661.538461538462,-90
5669.2307692307695,-73
5676.923076923077,-90
5684.615384615385,-90
5692.307692307692,-95
5700.0,-125
5707.692307692308,-106
5715.384615384615,-49
5723.076923076923,-90
5730.7692307692305,-304
5738.461538461539,-639
5746.153846153847,-964
5753.846153846154,-843
5761.538461538462,-80
5769.2307692307695,358
5776.923076923077,16
5784.615384615385,-171
5792.307692307692,-9
5800.0,-19
5807.692307692308,-95
5815.384615384615,-54
5823.076923076923,-42
5830.7692307692305,-78
5838.461538461539,-85
5846.153846153847,-87
5853.846153846154,-109
5861.538461538462,-118
5869.2307692307695,-106
5876.923076923077,-90
5884.615384615385,-104
5892.307692307692,-142
5900.0,-168
5907.692307692308,-156
5915.384615384615,-137
5923.076923076923,-159
5930.7692307692305,-180
5938.461538461539,-149
5946.153846153847,-123
5953.846153846154,-123
5961.538461538462,-118
5969.2307692307695,-109
5976.923076923077,-125
5984.615384615385,-144
5992.307692307692,-133
6000.0,-111
6007.692307692308,-111
6015.384615384615,-87
6023.076923076923,-49
6030.7692307692305,-49
6038.461538461539,-54
6046.153846153847,-14
6053.846153846154,-11
6061.538461538462,-54
6069.2307692307695,-59
6076.923076923077,-30
6084.615384615385,-33
6092.307692307692,-52
6100.0,-57
6107.692307692308,-64
6115.384615384615,-76
6123.076923076923,-71
6130.7692307692305,-83
6138.461538461539,-116
6146.153846153847,-118
6153.846153846154,-95
6161.538461538462,-92
6169.2307692307695,-104
6176.923076923077,-97
6184.615384615385,-80
6192.307692307692,-83
6200.0,-99
6207.692307692308,-90
6215.384615384615,-66
6223.076923076923,-71
6230.7692307692305,-109
6238.461538461539,-128
6246.153846153847,-111
6253.846153846154,-104
6261.538461538462,-109
6269.2307692307695,-104
6276.923076923077,-102
6284.615384615385,-102
6292.307692307692,-85
6300.0,-68
6307.692307692308,-64
6315.384615384615,-76
6323.076923076923,-92
6330.7692307692305,-80
6338.461538461539,-59
6346.153846153847,-71
6353.846153846154,-130
6361.538461538462,-335
6369.2307692307695,-708
6376.923076923077,-1038
6384.615384615385,-798
6392.307692307692,11
6400.0,285
6407.692307692308,-99
6415.384615384615,-147
6423.076923076923,30
6430.7692307692305,-33
6438.461538461539,-78
6446.153846153847,-9
6453.846153846154,-30
6461.538461538462,-85
6469.2307692307695,-78
6476.923076923077,-68
6484.615384615385,-85
6492.307692307692,-97
6500.0,-97
6507.692307692308,-95
6515.384615384615,-90
6523.076923076923,-97
6530.7692307692305,-104
6538.461538461539,-97
6546.153846153847,-106
6553.846153846154,-130
6561.538461538462,-130
6569.2307692307695,-123
6576.923076923077,-118
6584.615384615385,-106
6592.307692307692,-114
6600.0,-133
6607.692307692308,-125
6615.384615384615,-111
6623.076923076923,-109
6630.769230769231,-92
6638.461538461539,-73
6646.153846153847,-57
6653.846153846154,-40
6661.538461538462,-33
6669.2307692307695,-21
6676.923076923077,-2
6684.615384615385,-9
6692.307692307692,-21
6700.0,-16
6707.692307692308,-14
6715.384615384615,-23
6723.076923076923,-28
6730.769230769231,-42
6738.461538461539,-52
6746.153846153847,-52
6753.846153846154,-57
6761.538461538462,-61
6769.2307692307695,-59
6776.923076923077,-90
6784.615384615385,-118
6792.307692307692,-92
6800.0,-73
6807.692307692308,-76
6815.384615384615,-78
6823.076923076923,-102
6830.769230769231,-102
6838.461538461539,-68
6846.153846153847,-59
6853.846153846154,-66
6861.538461538462,-66
6869.2307692307695,-66
6876.923076923077,-52
6884.615384615385,-38
6892.307692307692,-49
6900.0,-80
6907.692307692308,-95
6915.384615384615,-76
6923.076923076923,-59
6930.769230769231,-59
6938.461538461539,-57
6946.153846153847,-52
6953.846153846154,-54
6961.538461538462,-49
6969.2307692307695,-26
6976.923076923077,-40
6984.615384615385,-218
6992.307692307692,-570
7000.0,-964
7007.692307692308,-938
7015.384615384615,-168
7023.076923076923,375
7030.769230769231,49
7038.461538461539,-173
7046.153846153847,21
7053.846153846154,33
7061.538461538462,-59
7069.2307692307695,-16
7076.923076923077,4
7084.615384615385,-38
7092.307692307692,-40
7100.0,-26
7107.692307692308,-45
7115.384615384615,-59
7123.076923076923,-49
7130.769230769231,-52
7138.461538461539,-83
7146.153846153847,-97
7153.846153846154,-80
7161.538461538462,-73
7169.2307692307695,-76
7176.923076923077,-73
7184.615384615385,-80
7192.307692307692,-92
7200.0,-85
7207.692307692308,-71
7215.384615384615,-73
7223.076923076923,-85
7230.769230769231,-80
7238.461538461539,-76
7246.153846153847,-76
7253.846153846154,-64
7261.538461538462,-33
7269.2307692307695,-2
7276.923076923077,16
7284.615384615385,19
7292.307692307692,14
7300.0,16
7307.692307692308,19
7315.384615384615,21
7323.076923076923,33
7330.769230769231,35
7338.461538461539,11
7346.153846153847,-16
7353.846153846154,-33
7361.538461538462,-52
7369.2307692307695,-61
7376.923076923077,-35
7384.615384615385,-21
7392.307692307692,-47
7400.0,-73
7407.692307692308,-76
7415.384615384615,-68
7423.076923076923,-71
7430.769230769231,-78
7438.461538461539,-73
7446.153846153847,-68
7453.846153846154,-73
7461.538461538462,-61
7469.2307692307695,-45
7476.923076923077,-45
7484.615384615385,-59
7492.307692307692,-66
7500.0,-76
7507.692307692308,-73
7515.384615384615,-52
7523.076923076923,-40
7530.769230769231,-49
7538.461538461539,-52
7546.153846153847,-40
7553.846153846154,-42
7561.538461538462,-59
7569.2307692307695,-61
7576.923076923077,-47
7584.615384615385,-38
7592.307692307692,-38
7600.0,-35
7607.692307692308,-42
7615.384615384615,-128
7623.076923076923,-387
7630.769230769231,-834
7638.461538461539,-1040
7646.153846153847,-408
7653.846153846154,332
7661.538461538462,156
7669.2307692307695,-175
7676.923076923077,-14
7684.615384615385,57
7692.307692307692,-45
7700.0,-9
7707.692307692308,26
7715.384615384615,-38
7723.076923076923,-61
7730.769230769231,-33
7738.461538461539,-35
7746.153846153847,-59
7753.846153846154,-59
7761.538461538462,-52
7769.2307692307695,-64
7776.923076923077,-73
7784.615384615385,-66
7792.307692307692,-54
7800.0,-52
7807.692307692308,-68
7815.384615384615,-95
7823.076923076923,-95
7830.769230769231,-78
7838.461538461539,-76
7846.153846153847,-76
7853.846153846154,-71
7861.538461538462,-76
7869.2307692307695,-85
7876.923076923077,-73
7884.615384615385,-45
7892.307692307692,-4
7900.0,16
7907.692307692308,-7
7915.384615384615,-19
7923.076923076923,19
7930.769230769231,47
7938.461538461539,35
7946.153846153847,16
7953.846153846154,7
7961.538461538462,11
7969.2307692307695,14
7976.923076923077,7
7984.615384615385,-2
7992.307692307692,-11
8000.0,-19
8007.692307692308,-14
8015.384615384615,-21
8023.076923076923,-57
8030.769230769231,-71
8038.461538461539,-61
8046.153846153847,-57
8053.846153846154,-57
8061.538461538462,-61
8069.2307692307695,-66
8076.923076923077,-59
8084.615384615385,-42
8092.307692307692,-45
8100.0,-66
8107.692307692308,-71
8115.384615384615,-57
8123.076923076923,-59
8130.769230769231,-78
8138.461538461539,-83
8146.153846153847,-66
8153.846153846154,-52
8161.538461538462,-47
8169.2307692307695,-52
8176.923076923077,-49
8184.615384615385,-45
8192.307692307693,-47
8200.0,-52
8207.692307692309,-59
8215.384615384615,-64
8223.076923076924,-59
8230.76923076923,-47
8238.461538461539,-40
8246.153846153846,-30
8253.846153846154,-59
8261.538461538461,-240
8269.23076923077,-646
8276.923076923078,-1028
8284.615384615385,-698
8292.307692307693,152
8300.0,275
8307.692307692309,-137
8315.384615384615,-85
8323.076923076924,83
8330.76923076923,-28
8338.461538461539,-64
8346.153846153846,11
8353.846153846154,2
8361.538461538461,-40
8369.23076923077,-59
8376.923076923078,-68
8384.615384615385,-54
8392.307692307693,-45
8400.0,-64
8407.692307692309,-87
8415.384615384615,-104
8423.076923076924,-109
8430.76923076923,-97
8438.461538461539,-87
8446.153846153846,-87
8453.846153846154,-87
8461.538461538461,-85
8469.23076923077,-87
8476.923076923078,-87
8484.615384615385,-99
8492.307692307693,-111
8500.0,-95
8507.692307692309,-85
8515.384615384615,-97
8523.076923076924,-85
8530.76923076923,-49
8538.461538461539,-21
8546.153846153846,0
8553.846153846154,21
8561.538461538461,45
8569.23076923077,52
8576.923076923078,45
8584.615384615385,38
8592.307692307693,26
8600.0,11
8607.692307692309,16
8615.384615384615,23
8623.076923076924,14
8630.76923076923,2
8638.461538461539,-7
8646.153846153846,-21
8653.846153846154,-28
8661.538461538461,-35
8669.23076923077,-52
8676.923076923078,-49
8684.615384615385,-42
8692.307692307693,-52
8700.0,-54
8707.692307692309,-47
8715.384615384615,-49
8723.076923076924,-52
8730.76923076923,-40
8738.461538461539,-28
8746.153846153846,-33
8753.846153846154,-42
8761.538461538461,-45
8769.23076923077,-38
8776.923076923078,-38
8784.615384615385,-59
8792.307692307693,-64
8800.0,-42
8807.692307692309,-30
8815.384615384615,-33
8823.076923076924,-30
8830.76923076923,-30
8838.461538461539,-35
8846.153846153846,-38
8853.846153846154,-26
8861.538461538461,-16
8869.23076923077,-26
8876.923076923078,-40
8884.615384615385,-26
8892.307692307693,-9
8900.0,-87
8907.692307692309,-351
8915.384615384615,-803
8923.076923076924,-1052
8930.76923076923,-463
8938.461538461539,332
8946.153846153846,201
8953.846153846154,-166
8961.538461538461,-11
8969.23076923077,80
8976.923076923078,-57
8984.615384615385,-54
8992.307692307693,7
9000.0,-26
9007.692307692309,-45
9015.384615384615,-28
9023.076923076924,-49
9030.76923076923,-80
9038.461538461539,-73
9046.153846153846,-57
9053.846153846154,-52
9061.538461538461,-61
9069.23076923077,-85
9076.923076923078,-95
9084.615384615385,-83
9092.307692307693,-73
9100.0,-66
9107.692307692309,-61
9115.384615384615,-61
9123.076923076924,-57
9130.76923076923,-47
9138.461538461539,-40
9146.153846153846,-40
9153.846153846154,-49
9161.538461538461,-61
9169.23076923077,-59
9176.923076923078,-38
9184.615384615385,-11
9192.307692307693,11
9200.0,38
9207.692307692309,49
9215.384615384615,47
9223.076923076924,40
9230.76923076923,26
9238.461538461539,16
9246.153846153846,11
9253.846153846154,4
9261.538461538461,2
9269.23076923077,-2
9276.923076923078,-16
9284.615384615385,-30
9292.307692307693,-35
9300.0,-40
9307.692307692309,-45
9315.384615384615,-35
9323.076923076924,-28
9330.76923076923,-35
9338.461538461539,-57
9346.153846153846,-73
9353.846153846154,-64
9361.538461538461,-45
9369.23076923077,-40
9376.923076923078,-45
9384.615384615385,-47
9392.307692307693,-40
9400.0,-30
9407.692307692309,-28
9415.384615384615,-21
9423.076923076924,-28
9430.76923076923,-71
9438.461538461539,-80
9446.153846153846,-40
9453.846153846154,-16
9461.538461538461,-21
9469.23076923077,-28
9476.923076923078,-38
9484.615384615385,-38
9492.307692307693,-16
9500.0,-4
9507.692307692309,-14
9515.384615384615,-16
9523.076923076924,-14
9530.76923076923,-26
9538.461538461539,-16
9546.153846153846,-2
9553.846153846154,-123
9561.538461538461,-468
9569.23076923077,-898
9576.923076923078,-841
9584.615384615385,-40
9592.307692307693,413
9600.0,33
9607.692307692309,-154
9615.384615384615,33
9623.076923076924,19
9630.76923076923,-54
9638.461538461539,-7
9646.153846153846,4
9653.846153846154,-23
9661.538461538461,-16
9669.23076923077,-19
9676.923076923078,-42
9684.615384615385,-40
9692.307692307693,-23
9700.0,-26
9707.692307692309,-42
9715.384615384615,-45
9723.076923076924,-35
9730.76923076923,-33
9738.461538461539,-42
9746.153846153846,-52
9753.846153846154,-47
9761.538461538461,-33
9769.23076923077,-11
9776.923076923078,11
9784.615384615385,9
9792.307692307693,-21
9800.0,-38
9807.692307692309,-23
9815.384615384615,-16
9823.076923076924,-26
9830.76923076923,-23
9838.461538461539,2
9846.153846153846,33
9853.846153846154,54
9861.538461538461,52
9869.23076923077,42
9876.923076923078,47
9884.615384615385,49
9892.307692307693,38
9900.0,40
9907.692307692309,35
9915.384615384615,11
9923.076923076924,2
9930.76923076923,4
9938.461538461539,-9
9946.153846153846,-38
9953.846153846154,-47
9961.538461538461,-33
9969.23076923077,-26
9976.923076923078,-35
9984.615384615385,-47
9992.307692307693,-35
10000.0,-9
10007.692307692309,-11
10015.384615384615,-42
10023.076923076924,-47
10030.76923076923,-21
10038.461538461539,-7
10046.153846153846,-11
10053.846153846154,-14
10061.538461538461,-19
10069.23076923077,-30
10076.923076923078,-28
10084.615384615385,-16
10092.307692307693,-21
10100.0,-40
10107.692307692309,-47
10115.384615384615,-30
10123.076923076924,-19
10130.76923076923,-14
10138.461538461539,-14
10146.153846153846,-30
10153.846153846154,-47
10161.538461538461,-38
10169.23076923077,-23
10176.923076923078,-19
10184.615384615385,-2
10192.307692307693,4
10200.0,-14
10207.692307692309,7
10215.384615384615,14
10223.076923076924,-173
10230.76923076923,-558
10238.461538461539,-898
10246.153846153846,-679
10253.846153846154,114
10261.538461538461,392
10269.23076923077,-19
10276.923076923078,-111
10284.615384615385,80
10292.307692307693,23
10300.0,-68
10307.692307692309,-11
10315.384615384615,9
10323.076923076924,-28
10330.76923076923,-45
10338.461538461539,-35
10346.153846153846,-26
10353.846153846154,-28
10361.538461538461,-38
10369.23076923077,-47
10376.923076923078,-61
10384.615384615385,-76
10392.307692307693,-76
10400.0,-71
10407.692307692309,-64
10415.384615384615,-52
10423.076923076924,-38
10430.76923076923,-30
10438.461538461539,-42
10446.153846153846,-52
10453.846153846154,-30
10461.538461538461,-7
10469.23076923077,-23
10476.923076923078,-54
10484.615384615385,-64
10492.307692307693,-61
10500.0,-47
10507.692307692309,-23
10515.384615384615,-2
10523.076923076924,19
10530.76923076923,23
10538.461538461539,11
10546.153846153846,-2
10553.846153846154,-7
10561.538461538461,-4
10569.23076923077,-7
10576.923076923078,-9
10584.615384615385,-14
10592.307692307693,-30
10600.0,-59
10607.692307692309,-68
10615.384615384615,-61
10623.076923076924,-68
10630.76923076923,-80
10638.461538461539,-68
10646.153846153846,-61
10653.846153846154,-76
10661.538461538461,-78
10669.23076923077,-66
10676.923076923078,-66
10684.615384615385,-80
10692.307692307693,-78
10700.0,-64
10707.692307692309,-59
10715.384615384615,-64
10723.076923076924,-71
10730.76923076923,-71
10738.461538461539,-80
10746.153846153846,-99
10753.846153846154,-95
10761.538461538461,-73
10769.23076923077,-80
10776.923076923078,-111
10784.615384615385,-111
10792.307692307693,-80
10800.0,-64
10807.692307692309,-64
10815.384615384615,-54
10823.076923076924,-61
10830.76923076923,-78
10838.461538461539,-71
10846.153846153846,-71
10853.846153846154,-87
10861.538461538461,-80
10869.23076923077,-66
10876.923076923078,-49
10884.615384615385,-26
10892.307692307693,-42
10900.0,-190
10907.692307692309,-482
10915.384615384615,-850
10923.076923076924,-872
10930.76923076923,-173
10938.461538461539,361
10946.153846153846,33
10953.846153846154,-218
10961.538461538461,-28
10969.23076923077,-9
10976.923076923078,-109
10984.615384615385,-68
10992.307692307693,-47
11000.0,-87
11007.692307692309,-87
11015.384615384615,-76
11023.076923076924,-90
11030.76923076923,-99
11038.461538461539,-102
11046.153846153846,-102
11053.846153846154,-102
11061.538461538461,-106
11069.23076923077,-121
11076.923076923078,-123
11084.615384615385,-104
11092.307692307693,-97
11100.0,-97
11107.692307692309,-90
11115.384615384615,-95
11123.076923076924,-92
11130.76923076923,-71
11138.461538461539,-71
11146.153846153846,-85
11153.846153846154,-71
11161.538461538461,-64
11169.23076923077,-83
11176.923076923078,-76
11184.615384615385,-57
11192.307692307693,-52
11200.0,-42
11207.692307692309,-45
11215.384615384615,-49
11223.076923076924,-28
11230.76923076923,-19
11238.461538461539,-35
11246.153846153846,-49
11253.846153846154,-47
11261.538461538461,-52
11269.23076923077,-66
11276.923076923078,-73
11284.615384615385,-68
11292.307692307693,-66
11300.0,-78
11307.692307692309,-102
11315.384615384615,-118
11323.076923076924,-121
11330.76923076923,-121
11338.461538461539,-104
11346.153846153846,-90
11353.846153846154,-99
11361.538461538461,-97
11369.23076923077,-78
11376.923076923078,-64
11384.615384615385,-68
11392.307692307693,-83
11400.0,-87
11407.692307692309,-90
11415.384615384615,-90
11423.076923076924,-83
11430.76923076923,-92
11438.461538461539,-109
11446.153846153846,-102
11453.846153846154,-90
11461.538461538461,-90
11469.23076923077,-83
11476.923076923078,-78
11484.615384615385,-85
11492.307692307693,-73
11500.0,-59
11507.692307692309,-80
11515.384615384615,-102
11523.076923076924,-83
11530.76923076923,-66
11538.461538461539,-78
11546.153846153846,-73
11553.846153846154,-76
11561.538461538461,-228
11569.23076923077,-537
11576.923076923078,-864
11584.615384615385,-879
11592.307692307693,-218
11600.0,363
11607.692307692309,87
11615.384615384615,-206
11623.076923076924,-33
11630.76923076923,16
11638.461538461539,-99
11646.153846153846,-87
11653.846153846154,-45
11661.538461538461,-73
11669.23076923077,-90
11676.923076923078,-85
11684.615384615385,-90
11692.307692307693,-85
11700.0,-76
11707.692307692309,-80
11715.384615384615,-83
11723.076923076924,-99
11730.76923076923,-133
11738.461538461539,-140
11746.153846153846,-109
11753.846153846154,-95
11761.538461538461,-104
11769.23076923077,-99
11776.923076923078,-90
11784.615384615385,-85
11792.307692307693,-71
11800.0,-47
11807.692307692309,-38
11815.384615384615,-64
11823.076923076924,-90
11830.76923076923,-83
11838.461538461539,-85
11846.153846153846,-80
11853.846153846154,-47
11861.538461538461,-49
11869.23076923077,-59
11876.923076923078,-28
11884.615384615385,-9
11892.307692307693,-11
11900.0,-21
11907.692307692309,-61
11915.384615384615,-76
11923.076923076924,-45
11930.76923076923,-52
11938.461538461539,-85
11946.153846153846,-80
11953.846153846154,-71
11961.538461538461,-95
11969.23076923077,-106
11976.923076923078,-90
11984.615384615385,-80
11992.307692307693,-95
12000.0,-104
12007.692307692309,-95
12015.384615384615,-90
12023.076923076924,-87
12030.76923076923,-66
12038.461538461539,-57
12046.153846153846,-78
12053.846153846154,-71
12061.538461538461,-59
12069.23076923077,-68
12076.923076923078,-52
12084.615384615385,-45
12092.307692307693,-92
12100.0,-99
12107.692307692309,-61
12115.384615384615,-64
12123.076923076924,-80
12130.76923076923,-64
12138.461538461539,-57
12146.153846153846,-71
12153.846153846154,-57
12161.538461538461,-40
12169.23076923077,-66
12176.923076923078,-76
12184.615384615385,-57
12192.307692307693,-59
12200.0,-66
12207.692307692309,-97
12215.384615384615,-280
12223.076923076924,-613
12230.76923076923,-931
12238.461538461539,-810
12246.153846153846,-47
12253.846153846154,384
12261.538461538461,11
12269.23076923077,-187
12276.923076923078,-9
12284.615384615385,-9
12292.307692307693,-92
12300.0,-57
12307.692307692309,-42
12315.384615384615,-78
12323.076923076924,-66
12330.76923076923,-45
12338.461538461539,-64
12346.153846153846,-92
12353.846153846154,-95
12361.538461538461,-85
12369.23076923077,-85
12376.923076923078,-102
12384.615384615385,-99
12392.307692307693,-83
12400.0,-97
12407.692307692309,-130
12415.384615384615,-116
12423.076923076924,-76
12430.76923076923,-71
12438.461538461539,-73
12446.153846153846,-57
12453.846153846154,-59
12461.538461538461,-71
12469.23076923077,-64
12476.923076923078,-66
12484.615384615385,-73
12492.307692307693,-47
12500.0,-26
12507.692307692309,-30
12515.384615384615,-21
12523.076923076924,7
12530.76923076923,7
12538.461538461539,-2
12546.153846153846,7
12553.846153846154,11
12561.538461538461,-2
12569.23076923077,-9
12576.923076923078,-21
12584.615384615385,-47
12592.307692307693,-66
12600.0,-59
12607.692307692309,-54
12615.384615384615,-61
12623.076923076924,-64
12630.76923076923,-71
12638.461538461539,-68
12646.153846153846,-61
12653.846153846154,-61
12661.538461538461,-57
12669.23076923077,-59
12676.923076923078,-73
12684.615384615385,-68
12692.307692307693,-47
12700.0,-47
12707.692307692309,-57
12715.384615384615,-52
12723.076923076924,-45
12730.76923076923,-49
12738.461538461539,-49
12746.153846153846,-47
12753.846153846154,-59
12761.538461538461,-49
12769.23076923077,-23
12776.923076923078,-26
12784.615384615385,-59
12792.307692307693,-64
12800.0,-40
12807.692307692309,-45
12815.384615384615,-61
12823.076923076924,-49
12830.76923076923,-42
12838.461538461539,-42
12846.153846153846,-28
12853.846153846154,-21
12861.538461538461,-33
12869.23076923077,-104
12876.923076923078,-311
12884.615384615385,-679
12892.307692307693,-993
12900.0,-620
12907.692307692309,209
12915.384615384615,275
12923.076923076924,-142
12930.76923076923,-83
12938.461538461539,68
12946.153846153846,-33
12953.846153846154,-57
12961.538461538461,-7
12969.23076923077,-40
12976.923076923078,-64
12984.615384615385,-68
12992.307692307693,-102
13000.0,-97
13007.692307692309,-71
13015.384615384615,-78
13023.076923076924,-90
13030.76923076923,-95
13038.461538461539,-102
13046.153846153846,-99
13053.846153846154,-90
13061.538461538461,-85
13069.23076923077,-90
13076.923076923078,-85
13084.615384615385,-76
13092.307692307693,-80
13100.0,-80
13107.692307692309,-59
13115.384615384615,-45
13123.076923076924,-59
13130.76923076923,-80
13138.461538461539,-76
13146.153846153846,-52
13153.846153846154,-26
13161.538461538463,-14
13169.23076923077,-16
13176.923076923078,0
13184.615384615385,26
13192.307692307693,7
13200.0,-19
13207.692307692309,2
13215.384615384615,14
13223.076923076924,-4
13230.76923076923,-19
13238.461538461539,-35
13246.153846153846,-49
13253.846153846154,-42
13261.538461538463,-40
13269.23076923077,-52
13276.923076923078,-66
13284.615384615385,-68
13292.307692307693,-61
13300.0,-59
13307.692307692309,-66
13315.384615384615,-80
13323.076923076924,-76
13330.76923076923,-64
13338.461538461539,-64
13346.153846153846,-64
13353.846153846154,-54
13361.538461538463,-49
13369.23076923077,-49
13376.923076923078,-38
13384.615384615385,-28
13392.307692307693,-40
13400.0,-59
13407.692307692309,-59
13415.384615384615,-57
13423.076923076924,-57
13430.76923076923,-52
13438.461538461539,-38
13446.153846153846,-45
13453.846153846154,-68
13461.538461538463,-73
13469.23076923077,-64
13476.923076923078,-52
13484.615384615385,-47
13492.307692307693,-49
13500.0,-49
13507.692307692309,-28
13515.384615384615,-26
13523.076923076924,-71
13530.76923076923,-92
13538.461538461539,-85
13546.153846153846,-213
13553.846153846154,-546
13561.538461538463,-931
13569.23076923077,-810
13576.923076923078,-2
13584.615384615385,375
13592.307692307693,-38
13600.0,-173
13607.692307692309,33
13615.384615384615,-9
13623.076923076924,-95
13630.76923076923,-35
13638.461538461539,-33
13646.153846153846,-73
13653.846153846154,-54
13661.538461538463,-35
13669.23076923077,-49
13676.923076923078,-61
13684.615384615385,-66
13692.307692307693,-68
13700.0,-64
13707.692307692309,-47
13715.384615384615,-47
13723.076923076924,-85
13730.76923076923,-104
13738.461538461539,-80
13746.153846153846,-59
13753.846153846154,-52
13761.538461538463,-40
13769.23076923077,-52
13776.923076923078,-71
13784.615384615385,-57
13792.307692307693,-35
13800.0,-45
13807.692307692309,-52
13815.384615384615,-47
13823.076923076924,-40
13830.76923076923,-19
13838.461538461539,14
13846.153846153846,30
13853.846153846154,28
13861.538461538463,19
13869.23076923077,16
13876.923076923078,33
13884.615384615385,35
13892.307692307693,11
13900.0,-14
13907.692307692309,-19
13915.384615384615,-9
13923.076923076924,-14
13930.76923076923,-38
13938.461538461539,-54
13946.153846153846,-49
13953.846153846154,-42
13961.538461538463,-52
13969.23076923077,-68
13976.923076923078,-73
13984.615384615385,-66
13992.307692307693,-57
14000.0,-54
14007.692307692309,-61
14015.384615384615,-66
14023.076923076924,-64
14030.76923076923,-52
14038.461538461539,-49
14046.153846153846,-61
14053.846153846154,-61
14061.538461538463,-42
14069.23076923077,-42
14076.923076923078,-59
14084.615384615385,-68
14092.307692307693,-66
14100.0,-59
14107.692307692309,-71
14115.384615384615,-85
14123.076923076924,-71
14130.76923076923,-49
14138.461538461539,-54
14146.153846153846,-64
14153.846153846154,-52
14161.538461538463,-40
14169.23076923077,-49
14176.923076923078,-59
14184.615384615385,-54
14192.307692307693,-45
14200.0,-42
14207.692307692309,-45
14215.384615384615,-33
14223.076923076924,-54
14230.76923076923,-247
14238.461538461539,-689
14246.153846153846,-1007
14253.846153846154,-518
14261.538461538463,287
14269.23076923077,232
14276.923076923078,-159
14284.615384615385,-64
14292.307692307693,33
14300.0,-66
14307.692307692309,-54
14315.384615384615,0
14323.076923076924,-30
14330.76923076923,-52
14338.461538461539,-38
14346.153846153846,-38
14353.846153846154,-40
14361.538461538463,-35
14369.23076923077,-52
14376.923076923078,-71
14384.615384615385,-61
14392.307692307693,-47
14400.0,-47
14407.692307692309,-54
14415.384615384615,-68
14423.076923076924,-71
14430.76923076923,-57
14438.461538461539,-40
14446.153846153846,-30
14453.846153846154,-28
14461.538461538463,-23
14469.23076923077,-26
14476.923076923078,-30
14484.615384615385,-28
14492.307692307693,-33
14500.0,-26
14507.692307692309,2
14515.384615384615,19
14523.076923076924,23
14530.76923076923,47
14538.461538461539,64
14546.153846153846,54
14553.846153846154,40
14561.538461538463,40
14569.23076923077,38
14576.923076923078,33
14584.615384615385,33
14592.307692307693,35
14600.0,19
14607.692307692309,-16
14615.384615384615,-40
14623.076923076924,-35
14630.76923076923,-28
14638.461538461539,-30
14646.153846153846,-42
14653.846153846154,-66
14661.538461538463,-71
14669.23076923077,-49
14676.923076923078,-40
14684.615384615385,-40
14692.307692307693,-38
14700.0,-42
14707.692307692309,-35
14715.384615384615,-19
14723.076923076924,-16
14730.76923076923,-28
14738.461538461539,-40
14746.153846153846,-40
14753.846153846154,-38
14761.538461538463,-35
14769.23076923077,-30
14776.923076923078,-35
14784.615384615385,-38
14792.307692307693,-30
14800.0,-23
14807.692307692309,-26
14815.384615384615,-30
14823.076923076924,-28
14830.76923076923,-30
14838.461538461539,-33
14846.153846153846,-28
14853.846153846154,-23
14861.538461538463,-21
14869.23076923077,-14
14876.923076923078,-9
14884.615384615385,-4
14892.307692307693,-38
14900.0,-218
14907.692307692309,-584
14915.384615384615,-933
14923.076923076924,-651
14930.76923076923,173
14938.461538461539,351
14946.153846153846,-68
14953.846153846154,-87
14961.538461538463,80
14969.23076923077,-4
14976.923076923078,-61
14984.615384615385,-2
14992.307692307693,-4
15000.0,-35
15007.692307692309,-26
15015.384615384615,-23
15023.076923076924,-40
15030.76923076923,-40
15038.461538461539,-30
15046.153846153846,-33
15053.846153846154,-40
15061.538461538463,-38
15069.23076923077,-35
15076.923076923078,-47
15084.615384615385,-52
15092.307692307693,-45
15100.0,-38
15107.692307692309,-38
15115.384615384615,-28
15123.076923076924,-11
15130.76923076923,-4
15138.461538461539,-7
15146.153846153846,-9
15153.846153846154,-19
15161.538461538463,-23
15169.23076923077,-16
15176.923076923078,0
15184.615384615385,16
15192.307692307693,23
15200.0,28
15207.692307692309,38
15215.384615384615,45
15223.076923076924,45
15230.76923076923,42
15238.461538461539,28
15246.153846153846,7
15253.846153846154,-11
15261.538461538463,-30
15269.23076923077,-38
15276.923076923078,-38
15284.615384615385,-42
15292.307692307693,-54
15300.0,-61
15307.692307692309,-59
15315.384615384615,-49
15323.076923076924,-45
15330.76923076923,-49
15338.461538461539,-49
15346.153846153846,-47
15353.846153846154,-45
15361.538461538463,-33
15369.23076923077,-38
15376.923076923078,-57
15384.615384615385,-54
15392.307692307693,-30
15400.0,-16
15407.692307692309,-19
15415.384615384615,-26
15423.076923076924,-23
15430.76923076923,-26
15438.461538461539,-28
15446.153846153846,-14
15453.846153846154,-7
15461.538461538463,-35
15469.23076923077,-52
15476.923076923078,-49
15484.615384615385,-73
15492.307692307693,-76
15500.0,-52
15507.692307692309,-42
15515.384615384615,-38
15523.076923076924,-26
15530.76923076923,-23
15538.461538461539,-33
15546.153846153846,-35
15553.846153846154,-26
15561.538461538463,-16
15569.23076923077,-11
15576.923076923078,-38
15584.615384615385,-192
15592.307692307693,-532
15600.0,-902
15607.692307692309,-739
15615.384615384615,57
15623.076923076924,373
15630.76923076923,-26
15638.461538461539,-137
15646.153846153846,38
15653.846153846154,0
15661.538461538463,-64
15669.23076923077,-16
15676.923076923078,-16
15684.615384615385,-49
15692.307692307693,-42
15700.0,-33
15707.692307692309,-45
15715.384615384615,-45
15723.076923076924,-33
15730.76923076923,-40
15738.461538461539,-52
15746.153846153846,-59
15753.846153846154,-59
15761.538461538463,-45
15769.23076923077,-30
15776.923076923078,-42
15784.615384615385,-59
15792.307692307693,-42
15800.0,-14
15807.692307692309,-4
15815.384615384615,0
15823.076923076924,4
15830.76923076923,4
15838.461538461539,0
15846.153846153846,-9
15853.846153846154,-16
15861.538461538463,-9
15869.23076923077,2
15876.923076923078,14
15884.615384615385,28
15892.307692307693,38
15900.0,35
15907.692307692309,45
15915.384615384615,47
15923.076923076924,21
15930.76923076923,0
15938.461538461539,-2
15946.153846153846,-9
15953.846153846154,-26
15961.538461538463,-30
15969.23076923077,-28
15976.923076923078,-33
15984.615384615385,-42
15992.307692307693,-47
16000.0,-35
16007.692307692309,-33
16015.384615384615,-45
16023.076923076924,-40
16030.76923076923,-30
16038.461538461539,-38
16046.153846153846,-33
16053.846153846154,-19
16061.538461538463,-11
16069.23076923077,-14
16076.923076923078,-14
16084.615384615385,-9
16092.307692307693,-9
16100.0,-9
16107.692307692309,-7
16115.384615384615,-4
16123.076923076924,-4
16130.76923076923,-23
16138.461538461539,-40
16146.153846153846,-30
16153.846153846154,-23
16161.538461538463,-35
16169.23076923077,-49
16176.923076923078,-49
16184.615384615385,-47
16192.307692307693,-42
16200.0,-40
16207.692307692309,-38
16215.384615384615,-33
16223.076923076924,-30
16230.76923076923,-26
16238.461538461539,-16
16246.153846153846,-2
16253.846153846154,-33
16261.538461538463,-204
16269.23076923077,-529
16276.923076923078,-881
16284.615384615385,-779
16292.307692307693,-42
16300.0,361
16307.692307692309,23
16315.384615384615,-161
16323.076923076924,-14
16330.76923076923,-19
16338.461538461539,-90
16346.153846153846,-49
16353.846153846154,-35
16361.538461538463,-68
16369.23076923077,-71
16376.923076923078,-64
16384.615384615387,-78
16392.30769230769,-87
16400.0,-97
16407.69230769231,-106
16415.384615384617,-106
16423.076923076922,-104
16430.76923076923,-114
16438.46153846154,-114
16446.153846153848,-104
16453.846153846156,-104
16461.53846153846,-102
16469.23076923077,-87
16476.923076923078,-76
16484.615384615387,-68
16492.30769230769,-66
16500.0,-73
16507.69230769231,-76
16515.384615384617,-87
16523.076923076922,-104
16530.76923076923,-102
16538.46153846154,-92
16546.153846153848,-92
16553.846153846156,-92
16561.53846153846,-80
16569.23076923077,-59
16576.923076923078,-52
16584.615384615387,-64
16592.30769230769,-71
16600.0,-73
16607.69230769231,-80
16615.384615384617,-95
16623.076923076922,-109
16630.76923076923,-125
16638.46153846154,-144
16646.153846153848,-152
16653.846153846156,-154
16661.53846153846,-156
16669.23076923077,-159
16676.923076923078,-166
16684.615384615387,-171
16692.30769230769,-161
16700.0,-149
16707.69230769231,-142
16715.384615384617,-135
16723.076923076922,-128
16730.76923076923,-128
16738.46153846154,-130
16746.153846153848,-128
16753.846153846156,-125
16761.53846153846,-118
16769.23076923077,-118
16776.923076923078,-123
16784.615384615387,-121
16792.30769230769,-118
16800.0,-118
16807.69230769231,-114
16815.384615384617,-116
16823.076923076922,-118
16830.76923076923,-104
16838.46153846154,-87
16846.153846153848,-85
16853.846153846156,-102
16861.53846153846,-111
16869.23076923077,-109
16876.923076923078,-104
16884.615384615387,-102
16892.30769230769,-102
16900.0,-111
16907.69230769231,-123
16915.384615384617,-161
16923.076923076922,-354
16930.76923076923,-701
16938.46153846154,-988
16946.153846153848,-760
16953.846153846156,23
16961.53846153846,327
16969.23076923077,-76
16976.923076923078,-209
16984.615384615387,-42
16992.30769230769,-68
17000.0,-137
17007.69230769231,-104
17015.384615384617,-102
17023.076923076922,-130
17030.76923076923,-123
17038.46153846154,-106
17046.153846153848,-109
17053.846153846156,-116
17061.53846153846,-116
17069.23076923077,-121
17076.923076923078,-123
17084.615384615387,-116
17092.30769230769,-116
17100.0,-116
17107.69230769231,-104
17115.384615384617,-87
17123.076923076922,-80
17130.76923076923,-71
17138.46153846154,-52
17146.153846153848,-35
17153.846153846156,-26
17161.53846153846,-23
17169.23076923077,-21
17176.923076923078,-26
17184.615384615387,-33
17192.30769230769,-30
17200.0,-19
17207.69230769231,-9
17215.384615384617,-2
17223.076923076922,7
17230.76923076923,11
17238.46153846154,16
17246.153846153848,21
17253.846153846156,23
17261.53846153846,19
17269.23076923077,9
17276.923076923078,-4
17284.615384615387,-16
17292.30769230769,-21
17300.0,-26
17307.69230769231,-33
17315.384615384617,-45
17323.076923076922,-57
17330.76923076923,-61
17338.46153846154,-52
17346.153846153848,-45
17353.846153846156,-49
17361.53846153846,-49
17369.23076923077,-45
17376.923076923078,-42
17384.615384615387,-40
17392.30769230769,-42
17400.0,-45
17407.69230769231,-35
17415.384615384617,-28
17423.076923076922,-23
17430.76923076923,-16
17438.46153846154,-16
17446.153846153848,-28
17453.846153846156,-38
17461.53846153846,-28
17469.23076923077,-21
17476.923076923078,-26
17484.615384615387,-40
17492.30769230769,-57
17500.0,-47
17507.69230769231,-35
17515.384615384617,-42
17523.076923076922,-47
17530.76923076923,-38
17538.46153846154,-35
17546.153846153848,-33
17553.846153846156,-23
17561.53846153846,-35
17569.23076923077,-178
17576.923076923078,-482
17584.615384615387,-829
17592.30769230769,-807
17600.0,-109
17607.69230769231,411
17615.384615384617,97
17623.076923076922,-152
17630.76923076923,21
17638.46153846154,52
17646.153846153848,-35
17653.846153846156,-11
17661.53846153846,14
17669.23076923077,-16
17676.923076923078,-21
17684.615384615387,-11
17692.30769230769,-28
17700.0,-38
17707.69230769231,-35
17715.384615384617,-38
17723.076923076922,-45
17730.76923076923,-40
17738.46153846154,-38
17746.153846153848,-42
17753.846153846156,-45
17761.53846153846,-45
17769.23076923077,-35
17776.923076923078,-16
17784.615384615387,-4
17792.30769230769,0
17800.0,9
17807.69230769231,16
17815.384615384617,9
17823.076923076922,2
17830.76923076923,-2
17838.46153846154,-11
17846.153846153848,-16
17853.846153846156,-2
17861.53846153846,19
17869.23076923077,30
17876.923076923078,30
17884.615384615387,28
17892.30769230769,26
17900.0,28
17907.69230769231,26
17915.384615384617,21
17923.076923076922,7
17930.76923076923,-11
17938.46153846154,-23
17946.153846153848,-33
17953.846153846156,-42
17961.53846153846,-49
17969.23076923077,-52
17976.923076923078,-52
17984.615384615387,-47
17992.30769230769,-47
18000.0,-47
18007.69230769231,-45
18015.384615384617,-52
18023.076923076922,-66
18030.76923076923,-71
18038.46153846154,-66
18046.153846153848,-49
18053.846153846156,-45
18061.53846153846,-45
18069.23076923077,-35
18076.923076923078,-28
18084.615384615387,-26
18092.30769230769,-26
18100.0,-26
18107.69230769231,-30
18115.384615384617,-42
18123.076923076922,-38
18130.76923076923,-19
18138.46153846154,-11
18146.153846153848,-16
18153.846153846156,-14
18161.53846153846,-16
18169.23076923077,-21
18176.923076923078,-21
18184.615384615387,-14
18192.30769230769,-9
18200.0,-9
18207.69230769231,-14
18215.384615384617,-7
18223.076923076922,11
18230.76923076923,-19
18238.46153846154,-194
18246.153846153848,-532
18253.846153846156,-881
18261.53846153846,-734
18269.23076923077,45
18276.923076923078,411
18284.615384615387,42
18292.30769230769,-104
18300.0,54
18307.69230769231,28
18315.384615384617,-33
18323.076923076922,9
18330.76923076923,9
18338.46153846154,-26
18346.153846153848,-23
18353.846153846156,-19
18361.53846153846,-33
18369.23076923077,-38
18376.923076923078,-38
18384.615384615387,-45
18392.30769230769,-61
18400.0,-66
18407.69230769231,-64
18415.384615384617,-61
18423.076923076922,-61
18430.76923076923,-64
18438.46153846154,-64
18446.153846153848,-52
18453.846153846156,-42
18461.53846153846,-38
18469.23076923077,-35
18476.923076923078,-38
18484.615384615387,-40
18492.30769230769,-38
18500.0,-47
18507.69230769231,-59
18515.384615384617,-57
18523.076923076922,-54
18530.76923076923,-49
18538.46153846154,-23
18546.153846153848,0
18553.846153846156,7
18561.53846153846,7
18569.23076923077,-7
18576.923076923078,-28
18584.615384615387,-35
18592.30769230769,-35
18600.0,-42
18607.69230769231,-57
18615.384615384617,-71
18623.076923076922,-80
18630.76923076923,-83
18638.46153846154,-85
18646.153846153848,-90
18653.846153846156,-102
18661.53846153846,-118
18669.23076923077,-121
18676.923076923078,-102
18684.615384615387,-90
18692.30769230769,-92
18700.0,-95
18707.69230769231,-90
18715.384615384617,-92
18723.076923076922,-95
18730.76923076923,-80
18738.46153846154,-71
18746.153846153848,-78
18753.846153846156,-83
18761.53846153846,-71
18769.23076923077,-76
18776.923076923078,-90
18784.615384615387,-92
18792.30769230769,-90
18800.0,-97
18807.69230769231,-92
18815.384615384617,-76
18823.076923076922,-76
18830.76923076923,-80
18838.46153846154,-87
18846.153846153848,-90
18853.846153846156,-87
18861.53846153846,-83
18869.23076923077,-80
18876.923076923078,-87
18884.615384615387,-90
18892.30769230769,-80
18900.0,-68
18907.69230769231,-61
18915.384615384617,-87
18923.076923076922,-247
18930.76923076923,-563
18938.46153846154,-919
18946.153846153848,-905
18953.846153846156,-194
18961.53846153846,351
18969.23076923077,57
18976.923076923078,-194
18984.615384615387,-33
18992.30769230769,-11
19000.0,-97
19007.69230769231,-66
19015.384615384617,-45
19023.076923076922,-83
19030.76923076923,-97
19038.46153846154,-95
19046.153846153848,-97
19053.846153846156,-97
19061.53846153846,-97
19069.23076923077,-104
19076.923076923078,-111
19084.615384615387,-111
19092.30769230769,-106
19100.0,-109
19107.69230769231,-118
19115.384615384617,-116
19123.076923076922,-106
19130.76923076923,-99
19138.46153846154,-90
19146.153846153848,-80
19153.846153846156,-90
19161.53846153846,-97
19169.23076923077,-87
19176.923076923078,-83
19184.615384615387,-83
19192.30769230769,-73
19200.0,-59
19207.69230769231,-40
19215.384615384617,-21
19223.076923076922,-7
19230.76923076923,9
19238.46153846154,16
19246.153846153848,16
19253.846153846156,14
19261.53846153846,14
19269.23076923077,9
19276.923076923078,2
19284.615384615387,-2
19292.30769230769,-11
19300.0,-21
19307.69230769231,-26
19315.384615384617,-38
19323.076923076922,-45
19330.76923076923,-45
19338.46153846154,-54
19346.153846153848,-59
19353.846153846156,-57
19361.53846153846,-57
19369.23076923077,-54
19376.923076923078,-52
19384.615384615387,-52
19392.30769230769,-49
19400.0,-40
19407.69230769231,-38
19415.384615384617,-35
19423.076923076922,-35
19430.76923076923,-38
19438.46153846154,-33
19446.153846153848,-28
19453.846153846156,-26
19461.53846153846,-28
19469.23076923077,-35
19476.923076923078,-40
19484.615384615387,-45
19492.30769230769,-49
19500.0,-47
19507.69230769231,-33
19515.384615384617,-28
19523.076923076922,-42
19530.76923076923,-54
19538.46153846154,-52
19546.153846153848,-42
19553.846153846156,-45
19561.53846153846,-45
19569.23076923077,-38
19576.923076923078,-30
19584.615384615387,-35
19592.30769230769,-40
19600.0,-33
19607.69230769231,-21
19615.384615384617,-42
19623.076923076922,-190
19630.76923076923,-525
19638.46153846154,-924
19646.153846153848,-800
19653.846153846156,14
19661.53846153846,375
19669.23076923077,-23
19676.923076923078,-140
19684.615384615387,52
19692.30769230769,0
19700.0,-90
19707.69230769231,-30
19715.384615384617,-14
19723.076923076922,-49
19730.76923076923,-42
19738.46153846154,-38
19746.153846153848,-54
19753.846153846156,-52
19761.53846153846,-42
19769.23076923077,-57
19776.923076923078,-71
19784.615384615387,-73
19792.30769230769,-71
19800.0,-68
19807.69230769231,-71
19815.384615384617,-76
19823.076923076922,-78
19830.76923076923,-68
19838.46153846154,-57
19846.153846153848,-49
19853.846153846156,-45
19861.53846153846,-47
19869.23076923077,-57
19876.923076923078,-57
19884.615384615387,-47
19892.30769230769,-35
19900.0,-16
19907.69230769231,2
19915.384615384617,14
19923.076923076922,26
19930.76923076923,35
19938.46153846154,38
19946.153846153848,40
19953.846153846156,35
19961.53846153846,21
19969.23076923077,14
19976.923076923078,11
19984.615384615387,2
19992.30769230769,-11
20000.0,-28
20007.69230769231,-40
20015.384615384617,-42
20023.076923076922,-45
20030.76923076923,-61
20038.46153846154,-80
20046.153846153848,-78
20053.846153846156,-78
20061.53846153846,-85
20069.23076923077,-80
20076.923076923078,-73
20084.615384615387,-73
20092.30769230769,-71
20100.0,-71
20107.69230769231,-68
20115.384615384617,-61
20123.076923076922,-54
20130.76923076923,-59
20138.46153846154,-57
20146.153846153848,-49
20153.846153846156,-52
20161.53846153846,-59
20169.23076923077,-59
20176.923076923078,-54
20184.615384615387,-54
20192.30769230769,-59
20200.0,-59
20207.69230769231,-52
20215.384615384617,-49
20223.076923076922,-54
20230.76923076923,-71
20238.46153846154,-92
20246.153846153848,-97
20253.846153846156,-87
20261.53846153846,-76
20269.23076923077,-61
20276.923076923078,-61
20284.615384615387,-76
20292.30769230769,-76
20300.0,-66
20307.69230769231,-64
20315.384615384617,-66
20323.076923076922,-76
20330.76923076923,-80
20338.46153846154,-68
20346.153846153848,-59
20353.846153846156,-59
20361.53846153846,-64
20369.23076923077,-152
20376.923076923078,-399
20384.615384615387,-769
20392.30769230769,-990
20400.0,-506
20407.69230769231,259
20415.384615384617,201
20423.076923076922,-185
20430.76923076923,-78
20438.46153846154,45
20446.153846153848,-64
20453.846153846156,-76
20461.53846153846,-30
20469.23076923077,-64
20476.923076923078,-80
20484.615384615387,-61
20492.30769230769,-66
20500.0,-80
20507.69230769231,-83
20515.384615384617,-85
20523.076923076922,-92
20530.76923076923,-97
20538.46153846154,-111
20546.153846153848,-121
20553.846153846156,-114
20561.53846153846,-106
20569.23076923077,-106
20576.923076923078,-99
20584.615384615387,-92
20592.30769230769,-90
20600.0,-87
20607.69230769231,-80
20615.384615384617,-78
20623.076923076922,-78
20630.76923076923,-71
20638.46153846154,-66
20646.153846153848,-59
20653.846153846156,-38
20661.53846153846,-11
20669.23076923077,9
20676.923076923078,26
20684.615384615387,33
20692.30769230769,33
20700.0,28
20707.69230769231,26
20715.384615384617,26
20723.076923076922,19
20730.76923076923,7
20738.46153846154,-2
20746.153846153848,-7
20753.846153846156,-11
20761.53846153846,-19
20769.23076923077,-26
20776.923076923078,-38
20784.615384615387,-47
20792.30769230769,-52
20800.0,-45
20807.69230769231,-38
20815.384615384617,-33
20823.076923076922,-28
20830.76923076923,-38
20838.46153846154,-64
20846.153846153848,-76
20853.846153846156,-59
20861.53846153846,-57
20869.23076923077,-66
20876.923076923078,-57
20884.615384615387,-42
20892.30769230769,-38
20900.0,-30
20907.69230769231,-28
20915.384615384617,-28
20923.076923076922,-30
20930.76923076923,-30
20938.46153846154,-21
20946.153846153848,-21
20953.846153846156,-33
20961.53846153846,-35
20969.23076923077,-23
20976.923076923078,-23
20984.615384615387,-33
20992.30769230769,-26
21000.0,-21
21007.69230769231,-26
21015.384615384617,-26
21023.076923076922,-28
21030.76923076923,-28
21038.46153846154,-23
21046.153846153848,-33
21053.846153846156,-45
21061.53846153846,-35
21069.23076923077,-28
21076.923076923078,-30
21084.615384615387,-21
21092.30769230769,-7
21100.0,-4
21107.69230769231,-4
21115.384615384617,-9
21123.076923076922,-14
21130.76923076923,-16
21138.46153846154,-11
21146.153846153848,-26
21153.846153846156,-149
21161.53846153846,-441
21169.23076923077,-843
21176.923076923078,-857
21184.615384615387,-121
21192.30769230769,408
21200.0,85
21207.69230769231,-135
21215.384615384617,47
21223.076923076922,42
21230.76923076923,-47
21238.46153846154,7
21246.153846153848,23
21253.846153846156,-21
21261.53846153846,-9
21269.23076923077,9
21276.923076923078,-2
21284.615384615387,-2
21292.30769230769,-7
21300.0,-28
21307.69230769231,-35
21315.384615384617,-42
21323.076923076922,-45
21330.76923076923,-45
21338.46153846154,-49
21346.153846153848,-52
21353.846153846156,-49
21361.53846153846,-40
21369.23076923077,-21
21376.923076923078,-16
21384.615384615387,-33
21392.30769230769,-49
21400.0,-57
21407.69230769231,-73
21415.384615384617,-73
21423.076923076922,-42
21430.76923076923,-11
21438.46153846154,2
21446.153846153848,19
21453.846153846156,47
21461.53846153846,59
21469.23076923077,54
21476.923076923078,49
21484.615384615387,45
21492.30769230769,42
21500.0,45
21507.69230769231,45
21515.384615384617,38
21523.076923076922,30
21530.76923076923,35
21538.46153846154,42
21546.153846153848,28
21553.846153846156,4
21561.53846153846,-14
21569.23076923077,-33
21576.923076923078,-38
21584.615384615387,-23
21592.30769230769,-21
21600.0,-14
21607.69230769231,4
21615.384615384617,4
21623.076923076922,-14
21630.76923076923,-14
21638.46153846154,2
21646.153846153848,2
21653.846153846156,-16
21661.53846153846,-28
21669.23076923077,-23
21676.923076923078,-14
21684.615384615387,-4
21692.30769230769,-4
21700.0,-4
21707.69230769231,2
21715.384615384617,0
21723.076923076922,-11
21730.76923076923,-11
21738.46153846154,-16
21746.153846153848,-33
21753.846153846156,-23
21761.53846153846,-11
21769.23076923077,-26
21776.923076923078,-30
21784.615384615387,-14
21792.30769230769,-7
21800.0,-16
21807.69230769231,-16
21815.384615384617,-9
21823.076923076922,-28
21830.76923076923,-64
21838.46153846154,-66
21846.153846153848,-42
21853.846153846156,-40
21861.53846153846,-38
21869.23076923077,-19
21876.923076923078,-16
21884.615384615387,-30
21892.30769230769,-30
21900.0,-28
21907.69230769231,-49
21915.384615384617,-64
21923.076923076922,-42
21930.76923076923,-28
21938.46153846154,-30
21946.153846153848,-52
21953.846153846156,-161
21961.53846153846,-418
21969.23076923077,-779
21976.923076923078,-902
21984.615384615387,-325
21992.30769230769,308
22000.0,118
22007.69230769231,-187
22015.384615384617,-33
22023.076923076922,45
22030.76923076923,-54
22038.46153846154,-52
22046.153846153848,-19
22053.846153846156,-45
22061.53846153846,-61
22069.23076923077,-66
22076.923076923078,-87
22084.615384615387,-85
22092.30769230769,-76
22100.0,-80
22107.69230769231,-83
22115.384615384617,-99
22123.076923076922,-118
22130.76923076923,-104
22138.46153846154,-87
22146.153846153848,-99
22153.846153846156,-109
22161.53846153846,-104
22169.23076923077,-114
22176.923076923078,-121
22184.615384615387,-104
22192.30769230769,-90
22200.0,-90
22207.69230769231,-102
22215.384615384617,-121
22223.076923076922,-123
22230.76923076923,-92
22238.46153846154,-66
22246.153846153848,-57
22253.846153846156,-42
22261.53846153846,-26
22269.23076923077,-19
22276.923076923078,-28
22284.615384615387,-30
22292.30769230769,-23
22300.0,-23
22307.69230769231,-33
22315.384615384617,-42
22323.076923076922,-45
22330.76923076923,-49
22338.46153846154,-61
22346.153846153848,-80
22353.846153846156,-95
22361.53846153846,-87
22369.23076923077,-90
22376.923076923078,-106
22384.615384615387,-99
22392.30769230769,-87
22400.0,-97
22407.69230769231,-95
22415.384615384617,-87
22423.076923076922,-102
22430.76923076923,-97
22438.46153846154,-78
22446.153846153848,-83
22453.846153846156,-102
22461.53846153846,-102
22469.23076923077,-78
22476.923076923078,-66
22484.615384615387,-78
22492.30769230769,-78
22500.0,-68
22507.69230769231,-80
22515.384615384617,-92
22523.076923076922,-83
22530.76923076923,-90
22538.46153846154,-111
22546.153846153848,-95
22553.846153846156,-71
22561.53846153846,-85
22569.23076923077,-111
22576.923076923078,-116
22584.615384615387,-106
22592.30769230769,-92
22600.0,-83
22607.69230769231,-95
22615.384615384617,-109
22623.076923076922,-99
22630.76923076923,-92
22638.46153846154,-87
22646.153846153848,-80
22653.846153846156,-80
22661.53846153846,-73
22669.23076923077,-59
22676.923076923078,-59
22684.615384615387,-90
22692.30769230769,-104
22700.0,-71
22707.69230769231,-47
22715.384615384617,-90
22723.076923076922,-242
22730.76923076923,-518
22738.46153846154,-850
22746.153846153848,-941
22753.846153846156,-339
22761.53846153846,346
22769.23076923077,171
22776.923076923078,-171
22784.615384615387,-47
22792.30769230769,14
22800.0,-85
22807.69230769231,-57
22815.384615384617,-21
22823.076923076922,-73
22830.76923076923,-78
22838.46153846154,-42
22846.153846153848,-47
22853.846153846156,-61
22861.53846153846,-73
22869.23076923077,-95
22876.923076923078,-102
22884.615384615387,-104
22892.30769230769,-116
22900.0,-111
22907.69230769231,-95
22915.384615384617,-104
22923.076923076922,-118
22930.76923076923,-97
22938.46153846154,-83
22946.153846153848,-99
22953.846153846156,-106
22961.53846153846,-92
22969.23076923077,-85
22976.923076923078,-80
22984.615384615387,-73
22992.30769230769,-90
23000.0,-97
23007.69230769231,-54
23015.384615384617,-9
23023.076923076922,-9
23030.76923076923,-7
23038.46153846154,9
23046.153846153848,9
23053.846153846156,-2
23061.53846153846,0
23069.23076923077,-16
23076.923076923078,-42
23084.615384615387,-35
23092.30769230769,-14
23100.0,-21
23107.69230769231,-40
23115.384615384617,-57
23123.076923076922,-59
23130.76923076923,-49
23138.46153846154,-49
23146.153846153848,-59
23153.846153846156,-61
23161.53846153846,-54
23169.23076923077,-54
23176.923076923078,-52
23184.615384615387,-52
23192.30769230769,-54
23200.0,-49
23207.69230769231,-49
23215.384615384617,-54
23223.076923076922,-38
23230.76923076923,-23
23238.46153846154,-33
23246.153846153848,-42
23253.846153846156,-40
23261.53846153846,-35
23269.23076923077,-35
23276.923076923078,-38
23284.615384615387,-33
23292.30769230769,-23
23300.0,-26
23307.69230769231,-33
23315.384615384617,-35
23323.076923076922,-38
23330.76923076923,-40
23338.46153846154,-47
23346.153846153848,-59
23353.846153846156,-54
23361.53846153846,-33
23369.23076923077,-26
23376.923076923078,-28
23384.615384615387,-35
23392.30769230769,-38
23400.0,-33
23407.69230769231,-38
23415.384615384617,-42
23423.076923076922,-38
23430.76923076923,-40
23438.46153846154,-42
23446.153846153848,-28
23453.846153846156,-19
23461.53846153846,-114
23469.23076923077,-370
23476.923076923078,-753
23484.615384615387,-995
23492.30769230769,-529
23500.0,266
23507.69230769231,259
23515.384615384617,-140
23523.076923076922,-61
23530.76923076923,61
23538.46153846154,-42
23546.153846153848,-57
23553.846153846156,-11
23561.53846153846,-38
23569.23076923077,-59
23576.923076923078,-57
23584.615384615387,-68
23592.30769230769,-73
23600.0,-78
23607.69230769231,-109
23615.384615384617,-133
23623.076923076922,-121
23630.76923076923,-106
23638.46153846154,-121
23646.153846153848,-130
23653.846153846156,-130
23661.53846153846,-135
23669.23076923077,-133
23676.923076923078,-118
23684.615384615387,-116
23692.30769230769,-121
23700.0,-116
23707.69230769231,-104
23715.384615384617,-95
23723.076923076922,-85
23730.76923076923,-71
23738.46153846154,-49
23746.153846153848,-28
23753.846153846156,-11
23761.53846153846,14
23769.23076923077,52
23776.923076923078,59
23784.615384615387,52
23792.30769230769,49
23800.0,47
23807.69230769231,47
23815.384615384617,49
23823.076923076922,42
23830.76923076923,30
23838.46153846154,19
23846.153846153848,9
23853.846153846156,-2
23861.53846153846,-9
23869.23076923077,-9
23876.923076923078,-14
23884.615384615387,-33
23892.30769230769,-38
23900.0,-30
23907.69230769231,-28
23915.384615384617,-38
23923.076923076922,-45
23930.76923076923,-49
23938.46153846154,-49
23946.153846153848,-52
23953.846153846156,-54
23961.53846153846,-52
23969.23076923077,-57
23976.923076923078,-64
23984.615384615387,-57
23992.30769230769,-52
24000.0,-54
24007.69230769231,-49
24015.384615384617,-49
24023.076923076922,-52
24030.76923076923,-45
24038.46153846154,-49
24046.153846153848,-61
24053.846153846156,-59
24061.53846153846,-64
24069.23076923077,-73
24076.923076923078,-66
24084.615384615387,-52
24092.30769230769,-47
24100.0,-52
24107.69230769231,-54
24115.384615384617,-42
24123.076923076922,-28
24130.76923076923,-30
24138.46153846154,-40
24146.153846153848,-40
24153.846153846156,-35
24161.53846153846,-30
24169.23076923077,-33
24176.923076923078,-35
24184.615384615387,-59
24192.30769230769,-185
24200.0,-494
24207.69230769231,-867
24215.384615384617,-786
24223.076923076922,-38
24230.76923076923,365
24238.46153846154,-9
24246.153846153848,-178
24253.846153846156,23
24261.53846153846,19
24269.23076923077,-66
24276.923076923078,-26
24284.615384615387,-16
24292.30769230769,-52
24300.0,-52
24307.69230769231,-45
24315.384615384617,-59
24323.076923076922,-64
24330.76923076923,-66
24338.46153846154,-76
24346.153846153848,-85
24353.846153846156,-90
24361.53846153846,-97
24369.23076923077,-99
24376.923076923078,-102
24384.615384615387,-114
24392.30769230769,-118
24400.0,-111
24407.69230769231,-104
24415.384615384617,-104
24423.076923076922,-102
24430.76923076923,-99
24438.46153846154,-99
24446.153846153848,-97
24453.846153846156,-85
24461.53846153846,-64
24469.23076923077,-38
24476.923076923078,-11
24484.615384615387,9
24492.30769230769,28
24500.0,42
24507.69230769231,42
24515.384615384617,38
24523.076923076922,33
24530.76923076923,33
24538.46153846154,30
24546.153846153848,26
24553.846153846156,16
24561.53846153846,7
24569.23076923077,4
24576.923076923078,-4
24584.615384615387,-19
24592.30769230769,-26
24600.0,-26
24607.69230769231,-30
24615.384615384617,-30
24623.076923076922,-30
24630.76923076923,-33
24638.46153846154,-35
24646.153846153848,-35
24653.846153846156,-35
24661.53846153846,-33
24669.23076923077,-28
24676.923076923078,-28
24684.615384615387,-26
24692.30769230769,-23
24700.0,-19
24707.69230769231,-9
24715.384615384617,-11
24723.076923076922,-16
24730.76923076923,-11
24738.46153846154,-9
24746.153846153848,-21
24753.846153846156,-26
24761.53846153846,-23
24769.23076923077,-23
24776.923076923078,-38
24784.615384615387,-42
24792.30769230769,-19
24800.0,-4
24807.69230769231,-2
24815.384615384617,7
24823.076923076922,14
24830.76923076923,11
24838.46153846154,11
24846.153846153848,14
24853.846153846156,9
24861.53846153846,4
24869.23076923077,4
24876.923076923078,4
24884.615384615387,9
24892.30769230769,-52
24900.0,-280
24907.69230769231,-662
24915.384615384617,-957
24923.076923076922,-586
24930.76923076923,201
24938.46153846154,278
24946.153846153848,-116
24953.846153846156,-83
24961.53846153846,54
24969.23076923077,-30
24976.923076923078,-52
24984.615384615387,2
24992.30769230769,-14
25000.0,-30
25007.69230769231,-14
25015.384615384617,-16
25023.076923076922,-23
25030.76923076923,-21
25038.46153846154,-26
25046.153846153848,-35
25053.846153846156,-45
25061.53846153846,-49
25069.23076923077,-49
25076.923076923078,-59
25084.615384615387,-78
25092.30769230769,-92
25100.0,-92
25107.69230769231,-85
25115.384615384617,-83
25123.076923076922,-85
25130.76923076923,-85
25138.46153846154,-87
25146.153846153848,-92
25153.846153846156,-90
25161.53846153846,-73
25169.23076923077,-54
25176.923076923078,-38
25184.615384615387,-19
25192.30769230769,2
25200.0,21
25207.69230769231,35
25215.384615384617,40
25223.076923076922,40
25230.76923076923,38
25238.46153846154,33
25246.153846153848,30
25253.846153846156,28
25261.53846153846,23
25269.23076923077,14
25276.923076923078,-7
25284.615384615387,-28
25292.30769230769,-33
25300.0,-26
25307.69230769231,-26
25315.384615384617,-38
25323.076923076922,-59
25330.76923076923,-66
25338.46153846154,-52
25346.153846153848,-42
25353.846153846156,-47
25361.53846153846,-40
25369.23076923077,-40
25376.923076923078,-47
25384.615384615387,-40
25392.30769230769,-33
25400.0,-40
25407.69230769231,-38
25415.384615384617,-28
25423.076923076922,-21
25430.76923076923,-14
25438.46153846154,-11
25446.153846153848,-21
25453.846153846156,-30
25461.53846153846,-11
25469.23076923077,4
25476.923076923078,2
25484.615384615387,-9
25492.30769230769,-16
25500.0,-19
25507.69230769231,-7
25515.384615384617,2
25523.076923076922,-11
25530.76923076923,-11
25538.46153846154,4
25546.153846153848,-2
25553.846153846156,-9
25561.53846153846,4
25569.23076923077,-76
25576.923076923078,-358
25584.615384615387,-758
25592.30769230769,-902
25600.0,-318
25607.69230769231,380
25615.384615384617,232
25623.076923076922,-123
25630.76923076923,-23
25638.46153846154,42
25646.153846153848,-54
25653.846153846156,-40
25661.53846153846,7
25669.23076923077,-14
25676.923076923078,-26
25684.615384615387,-19
25692.30769230769,-30
25700.0,-40
25707.69230769231,-42
25715.384615384617,-54
25723.076923076922,-66
25730.76923076923,-64
25738.46153846154,-61
25746.153846153848,-66
25753.846153846156,-68
25761.53846153846,-68
25769.23076923077,-76
25776.923076923078,-87
25784.615384615387,-80
25792.30769230769,-66
25800.0,-66
25807.69230769231,-68
25815.384615384617,-66
25823.076923076922,-71
25830.76923076923,-78
25838.46153846154,-76
25846.153846153848,-64
25853.846153846156,-54
25861.53846153846,-47
25869.23076923077,-28
25876.923076923078,0
25884.615384615387,14
25892.30769230769,11
25900.0,-7
25907.69230769231,-42
25915.384615384617,-71
25923.076923076922,-80
25930.76923076923,-97
25938.46153846154,-97
25946.153846153848,-71
25953.846153846156,-73
25961.53846153846,-92
25969.23076923077,-73
25976.923076923078,-59
25984.615384615387,-71
25992.30769230769,-68
26000.0,-61
26007.69230769231,-61
26015.384615384617,-61
26023.076923076922,-47
26030.76923076923,-30
26038.46153846154,-30
26046.153846153848,-38
26053.846153846156,-30
26061.53846153846,-19
26069.23076923077,-19
26076.923076923078,-16
26084.615384615387,-16
26092.30769230769,-33
26100.0,-52
26107.69230769231,-47
26115.384615384617,-33
26123.076923076922,-47
26130.76923076923,-66
26138.46153846154,-57
26146.153846153848,-33
26153.846153846156,-19
26161.53846153846,-19
26169.23076923077,-26
26176.923076923078,-26
26184.615384615387,-28
26192.30769230769,-35
26200.0,-35
26207.69230769231,-33
26215.384615384617,-38
26223.076923076922,-28
26230.76923076923,-9
26238.46153846154,-2
26246.153846153848,-80
26253.846153846156,-325
26261.53846153846,-703
26269.23076923077,-955
26276.923076923078,-546
26284.615384615387,273
26292.30769230769,351
26300.0,-95
26307.69230769231,-97
26315.384615384617,47
26323.076923076926,-33
26330.76923076923,-66
26338.46153846154,-11
26346.153846153848,-21
26353.846153846156,-54
26361.53846153846,-52
26369.23076923077,-52
26376.923076923078,-64
26384.615384615387,-61
26392.30769230769,-61
26400.0,-78
26407.69230769231,-90
26415.384615384617,-95
26423.076923076926,-95
26430.76923076923,-87
26438.46153846154,-80
26446.153846153848,-90
26453.846153846156,-104
26461.53846153846,-97
26469.23076923077,-83
26476.923076923078,-78
26484.615384615387,-73
26492.30769230769,-71
26500.0,-83
26507.69230769231,-92
26515.384615384617,-87
26523.076923076926,-71
26530.76923076923,-52
26538.46153846154,-26
26546.153846153848,-2
26553.846153846156,2
26561.53846153846,-2
26569.23076923077,-2
26576.923076923078,-9
26584.615384615387,-7
26592.30769230769,9
26600.0,4
26607.69230769231,-9
26615.384615384617,-9
26623.076923076926,-14
26630.76923076923,-33
26638.46153846154,-40
26646.153846153848,-45
26653.846153846156,-49
26661.53846153846,-45
26669.23076923077,-49
26676.923076923078,-54
26684.615384615387,-49
26692.30769230769,-47
26700.0,-52
26707.69230769231,-45
26715.384615384617,-42
26723.076923076926,-45
26730.76923076923,-38
26738.46153846154,-35
26746.153846153848,-33
26753.846153846156,-28
26761.53846153846,-28
26769.23076923077,-35
26776.923076923078,-23
26784.615384615387,-11
26792.30769230769,-23
26800.0,-30
26807.69230769231,-9
26815.384615384617,0
26823.076923076926,-4
26830.76923076923,-9
26838.46153846154,-19
26846.153846153848,-7
26853.846153846156,14
26861.53846153846,14
26869.23076923077,9
26876.923076923078,2
26884.615384615387,-2
26892.30769230769,0
26900.0,7
26907.69230769231,21
26915.384615384617,-42
26923.076923076926,-301
26930.76923076923,-698
26938.46153846154,-969
26946.153846153848,-575
26953.846153846156,270
26961.53846153846,373
26969.23076923077,-73
26976.923076923078,-73
26984.615384615387,71
26992.30769230769,-21
27000.0,-54
27007.69230769231,4
27015.384615384617,-9
27023.076923076926,-49
27030.76923076923,-52
27038.46153846154,-54
27046.153846153848,-78
27053.846153846156,-83
27061.53846153846,-64
27069.23076923077,-73
27076.923076923078,-97
27084.615384615387,-102
27092.30769230769,-104
27100.0,-133
27107.69230769231,-154
27115.384615384617,-152
27123.076923076926,-152
27130.76923076923,-147
27138.46153846154,-135
27146.153846153848,-142
27153.846153846156,-147
27161.53846153846,-142
27169.23076923077,-154
27176.923076923078,-166
27184.615384615387,-152
27192.30769230769,-128
27200.0,-97
27207.69230769231,-66
27215.384615384617,-40
27223.076923076926,-14
27230.76923076923,7
27238.46153846154,16
27246.153846153848,19
27253.846153846156,23
27261.53846153846,26
27269.23076923077,33
27276.923076923078,33
27284.615384615387,9
27292.30769230769,4
27300.0,7
27307.69230769231,-7
27315.384615384617,-23
27323.076923076926,-23
27330.76923076923,-23
27338.46153846154,-30
27346.153846153848,-45
27353.846153846156,-61
27361.53846153846,-49
27369.23076923077,-35
27376.923076923078,-40
27384.615384615387,-49
27392.30769230769,-54
27400.0,-57
27407.69230769231,-54
27415.384615384617,-52
27423.076923076926,-57
27430.76923076923,-57
27438.46153846154,-68
27446.153846153848,-73
27453.846153846156,-61
27461.53846153846,-54
27469.23076923077,-54
27476.923076923078,-52
27484.615384615387,-61
27492.30769230769,-64
27500.0,-45
27507.69230769231,-35
27515.384615384617,-42
27523.076923076926,-42
27530.76923076923,-40
27538.46153846154,-35
27546.153846153848,-19
27553.846153846156,0
27561.53846153846,-52
27569.23076923077,-280
27576.923076923078,-681
27584.615384615387,-1026
27592.30769230769,-696
27600.0,178
27607.69230769231,346
27615.384615384617,-111
27623.076923076926,-133
27630.76923076923,71
27638.46153846154,16
27646.153846153848,-35
27653.846153846156,23
27661.53846153846,14
27669.23076923077,-21
27676.923076923078,-9
27684.615384615387,-21
27692.30769230769,-52
27700.0,-47
27707.69230769231,-45
27715.384615384617,-52
27723.076923076926,-42
27730.76923076923,-47
27738.46153846154,-52
27746.153846153848,-42
27753.846153846156,-54
27761.53846153846,-73
27769.23076923077,-64
27776.923076923078,-54
27784.615384615387,-57
27792.30769230769,-57
27800.0,-52
27807.69230769231,-52
27815.384615384617,-52
27823.076923076926,-52
27830.76923076923,-38
27838.46153846154,-9
27846.153846153848,14
27853.846153846156,26
27861.53846153846,40
27869.23076923077,59
27876.923076923078,61
27884.615384615387,61
27892.30769230769,68
27900.0,66
27907.69230769231,52
27915.384615384617,42
27923.076923076926,38
27930.76923076923,23
27938.46153846154,11
27946.153846153848,9
27953.846153846156,0
27961.53846153846,-11
27969.23076923077,-9
27976.923076923078,0
27984.615384615387,-16
27992.30769230769,-57
28000.0,-59
28007.69230769231,-35
28015.384615384617,-33
28023.076923076926,-42
28030.76923076923,-26
28038.46153846154,-11
28046.153846153848,-38
28053.846153846156,-54
28061.53846153846,-26
28069.23076923077,-14
28076.923076923078,-38
28084.615384615387,-40
28092.30769230769,-19
28100.0,-26
28107.69230769231,-57
28115.384615384617,-47
28123.076923076926,-2
28130.76923076923,21
28138.46153846154,4
28146.153846153848,-11
28153.846153846156,-14
28161.53846153846,-30
28169.23076923077,-42
28176.923076923078,-28
28184.615384615387,-14
28192.30769230769,-11
28200.0,-4
28207.69230769231,21
28215.384615384617,42
28223.076923076926,-4
28230.76923076923,-216
28238.46153846154,-620
28246.153846153848,-1000
28253.846153846156,-708
28261.53846153846,171
28269.23076923077,380
28276.923076923078,-42
28284.615384615387,-57
28292.30769230769,111
28300.0,21
28307.69230769231,-21
28315.384615384617,26
28323.076923076926,-2
28330.76923076923,-16
28338.46153846154,26
28346.153846153848,35
28353.846153846156,9
28361.53846153846,-33
28369.23076923077,-64
28376.923076923078,-52
28384.615384615387,-40
28392.30769230769,-54
28400.0,-59
28407.69230769231,-42
28415.384615384617,-30
28423.076923076926,-42
28430.76923076923,-66
28438.46153846154,-80
28446.153846153848,-76
28453.846153846156,-57
28461.53846153846,-42
28469.23076923077,-42
28476.923076923078,-54
28484.615384615387,-59
28492.30769230769,-49
28500.0,-21
28507.69230769231,28
28515.384615384617,52
28523.076923076926,38
28530.76923076923,47
28538.46153846154,57
28546.153846153848,52
28553.846153846156,61
28561.53846153846,76
28569.23076923077,73
28576.923076923078,68
28584.615384615387,71
28592.30769230769,57
28600.0,19
28607.69230769231,-16
28615.384615384617,-21
28623.076923076926,-2
28630.76923076923,-2
28638.46153846154,-26
28646.153846153848,-23
28653.846153846156,-7
28661.53846153846,-11
28669.23076923077,-19
28676.923076923078,-9
28684.615384615387,-11
28692.30769230769,-19
28700.0,-26
28707.69230769231,-45
28715.384615384617,-47
28723.076923076926,-19
28730.76923076923,-2
28738.46153846154,-9
28746.153846153848,-26
28753.846153846156,-30
28761.53846153846,-14
28769.23076923077,-4
28776.923076923078,-16
28784.615384615387,-26
28792.30769230769,-19
28800.0,-23
28807.69230769231,-26
28815.384615384617,-9
28823.076923076926,2
28830.76923076923,-7
28838.46153846154,-14
28846.153846153848,0
28853.846153846156,7
28861.53846153846,4
28869.23076923077,14
28876.923076923078,28
28884.615384615387,45
28892.30769230769,4
28900.0,-216
28907.69230769231,-605
28915.384615384617,-955
28923.076923076926,-710
28930.76923076923,125
28938.46153846154,420
28946.153846153848,28
28953.846153846156,-68
28961.53846153846,83
28969.23076923077,42
28976.923076923078,-16
28984.615384615387,14
28992.30769230769,4
29000.0,-4
29007.69230769231,21
29015.384615384617,14
29023.076923076926,-9
29030.76923076923,-9
29038.46153846154,-16
29046.153846153848,-40
29053.846153846156,-42
29061.53846153846,-23
29069.23076923077,-30
29076.923076923078,-54
29084.615384615387,-47
29092.30769230769,-35
29100.0,-40
29107.69230769231,-26
29115.384615384617,-26
29123.076923076926,-52
29130.76923076923,-45
29138.46153846154,-28
29146.153846153848,-49
29153.846153846156,-64
29161.53846153846,-42
29169.23076923077,-9
29176.923076923078,4
29184.615384615387,4
29192.30769230769,11
29200.0,28
29207.69230769231,47
29215.384615384617,64
29223.076923076926,73
29230.76923076923,64
29238.46153846154,30
29246.153846153848,2
29253.846153846156,14
29261.53846153846,33
29269.23076923077,19
29276.923076923078,-11
29284.615384615387,-28
29292.30769230769,-26
29300.0,-30
29307.69230769231,-42
29315.384615384617,-49
29323.076923076926,-45
29330.76923076923,-35
29338.46153846154,-19
29346.153846153848,-9
29353.846153846156,-7
29361.53846153846,-9
29369.23076923077,-38
29376.923076923078,-66
29384.615384615387,-49
29392.30769230769,-21
29400.0,-14
29407.69230769231,-14
29415.384615384617,-7
29423.076923076926,-2
29430.76923076923,-4
29438.46153846154,-14
29446.153846153848,-38
29453.846153846156,-59
29461.53846153846,-49
29469.23076923077,-23
29476.923076923078,-7
29484.615384615387,-9
29492.30769230769,-28
29500.0,-33
29507.69230769231,-23
29515.384615384617,-19
29523.076923076926,-26
29530.76923076923,-28
29538.46153846154,-16
29546.153846153848,-19
29553.846153846156,-38
29561.53846153846,-30
29569.23076923077,0
29576.923076923078,-11
29584.615384615387,-154
29592.30769230769,-458
29600.0,-850
29607.69230769231,-850
29615.384615384617,-116
29623.076923076926,406
29630.76923076923,92
29638.46153846154,-125
29646.153846153848,42
29653.846153846156,26
29661.53846153846,-73
29669.23076923077,-38
29676.923076923078,-21
29684.615384615387,-47
29692.30769230769,-33
29700.0,-21
29707.69230769231,-33
29715.384615384617,-35
29723.076923076926,-30
29730.76923076923,-42
29738.46153846154,-61
29746.153846153848,-68
29753.846153846156,-59
29761.53846153846,-57
29769.23076923077,-71
29776.923076923078,-73
29784.615384615387,-54
29792.30769230769,-45
29800.0,-42
29807.69230769231,-40
29815.384615384617,-47
29823.076923076926,-61
29830.76923076923,-73
29838.46153846154,-73
29846.153846153848,-68
29853.846153846156,-66
29861.53846153846,-57
29869.23076923077,-30
29876.923076923078,-14
29884.615384615387,-7
29892.30769230769,0
29900.0,9
29907.69230769231,11
29915.384615384617,14
29923.076923076926,14
29930.76923076923,0
29938.46153846154,-16
29946.153846153848,-19
29953.846153846156,-26
29961.53846153846,-52
29969.23076923077,-68
29976.923076923078,-78
29984.615384615387,-85
29992.30769230769,-80
30000.0,-73
30007.69230769231,-78
30015.384615384617,-83
30023.076923076926,-83
30030.76923076923,-85
30038.46153846154,-85
30046.153846153848,-78
30053.846153846156,-73
30061.53846153846,-76
30069.23076923077,-73
30076.923076923078,-61
30084.615384615387,-54
30092.30769230769,-68
30100.0,-80
30107.69230769231,-71
30115.384615384617,-61
30123.076923076926,-71
30130.76923076923,-73
30138.46153846154,-76
30146.153846153848,-92
30153.846153846156,-97
30161.53846153846,-85
30169.23076923077,-87
30176.923076923078,-99
30184.615384615387,-87
30192.30769230769,-83
30200.0,-104
30207.69230769231,-95
30215.384615384617,-80
30223.076923076926,-97
30230.76923076923,-95
30238.46153846154,-80
30246.153846153848,-95
30253.846153846156,-95
30261.53846153846,-78
30269.23076923077,-80
30276.923076923078,-78
30284.615384615387,-102
30292.30769230769,-280
30300.0,-608
30307.69230769231,-979
30315.384615384617,-986
30323.076923076926,-254
30330.76923076923,320
30338.46153846154,2
30346.153846153848,-256
30353.846153846156,-57
30361.53846153846,-35
30369.23076923077,-159
30376.923076923078,-137
30384.615384615387,-116
30392.30769230769,-154
30400.0,-133
30407.69230769231,-106
30415.384615384617,-128
30423.076923076926,-114
30430.76923076923,-83
30438.46153846154,-87
30446.153846153848,-99
30453.846153846156,-92
30461.53846153846,-92
30469.23076923077,-106
30476.923076923078,-109
30484.615384615387,-95
30492.30769230769,-85
30500.0,-78
30507.69230769231,-64
30515.384615384617,-49
30523.076923076926,-52
30530.76923076923,-52
30538.46153846154,-45
30546.153846153848,-52
30553.846153846156,-59
30561.53846153846,-42
30569.23076923077,-21
30576.923076923078,-7
30584.615384615387,9
30592.30769230769,16
30600.0,16
30607.69230769231,19
30615.384615384617,23
30623.076923076926,28
30630.76923076923,26
30638.46153846154,11
30646.153846153848,0
30653.846153846156,4
30661.53846153846,4
30669.23076923077,-11
30676.923076923078,-33
30684.615384615387,-45
30692.30769230769,-42
30700.0,-40
30707.69230769231,-42
30715.384615384617,-47
30723.076923076926,-49
30730.76923076923,-49
30738.46153846154,-45
30746.153846153848,-40
30753.846153846156,-47
30761.53846153846,-47
30769.23076923077,-28
30776.923076923078,-14
30784.615384615387,-16
30792.30769230769,-19
30800.0,-19
30807.69230769231,-23
30815.384615384617,-23
30823.076923076926,-26
30830.76923076923,-21
30838.46153846154,-9
30846.153846153848,-14
30853.846153846156,-33
30861.53846153846,-38
30869.23076923077,-28
30876.923076923078,-30
30884.615384615387,-35
30892.30769230769,-33
30900.0,-40
30907.69230769231,-49
30915.384615384617,-42
30923.076923076926,-35
30930.76923076923,-38
30938.46153846154,-38
30946.153846153848,-49
30953.846153846156,-66
30961.53846153846,-61
30969.23076923077,-49
30976.923076923078,-42
30984.615384615387,-33
30992.30769230769,-121
31000.0,-406
31007.69230769231,-848
31015.384615384617,-1012
31023.076923076926,-401
31030.76923076923,282
31038.46153846154,118
31046.153846153848,-187
31053.846153846156,-38
31061.53846153846,45
31069.23076923077,-49
31076.923076923078,-52
31084.615384615387,-42
31092.30769230769,-76
31100.0,-64
31107.69230769231,-49
31115.384615384617,-61
31123.076923076926,-71
31130.76923076923,-83
31138.46153846154,-90
31146.153846153848,-87
31153.846153846156,-87
31161.53846153846,-99
31169.23076923077,-109
31176.923076923078,-95
31184.615384615387,-76
31192.30769230769,-76
31200.0,-78
31207.69230769231,-66
31215.384615384617,-57
31223.076923076926,-52
31230.76923076923,-42
31238.46153846154,-38
31246.153846153848,-42
31253.846153846156,-35
31261.53846153846,-19
31269.23076923077,-16
31276.923076923078,-4
31284.615384615387,33
31292.30769230769,61
31300.0,61
31307.69230769231,52
31315.384615384617,54
31323.076923076926,66
31330.76923076923,71
31338.46153846154,61
31346.153846153848,45
31353.846153846156,28
31361.53846153846,16
31369.23076923077,9
31376.923076923078,2
31384.615384615387,-11
31392.30769230769,-26
31400.0,-33
31407.69230769231,-38
31415.384615384617,-35
31423.076923076926,-35
31430.76923076923,-30
31438.46153846154,-26
31446.153846153848,-23
31453.846153846156,-19
31461.53846153846,-19
31469.23076923077,-33
31476.923076923078,-26
31484.615384615387,-9
31492.30769230769,-19
31500.0,-26
31507.69230769231,-16
31515.384615384617,-9
31523.076923076926,-14
31530.76923076923,-30
31538.46153846154,-42
31546.153846153848,-35
31553.846153846156,-28
31561.53846153846,-42
31569.23076923077,-52
31576.923076923078,-52
31584.615384615387,-52
31592.30769230769,-57
31600.0,-54
31607.69230769231,-45
31615.384615384617,-47
31623.076923076926,-49
31630.76923076923,-40
31638.46153846154,-42
31646.153846153848,-54
31653.846153846156,-59
31661.53846153846,-54
31669.23076923077,-54
31676.923076923078,-54
31684.615384615387,-40
31692.30769230769,-26
31700.0,-40
31707.69230769231,-178
31715.384615384617,-499
31723.076923076926,-898
31730.76923076923,-812
31738.46153846154,-21
31746.153846153848,380
31753.846153846156,-9
31761.53846153846,-154
31769.23076923077,54
31776.923076923078,35
31784.615384615387,-54
31792.30769230769,-7
31800.0,9
31807.69230769231,-30
31815.384615384617,-28
31823.076923076926,-19
31830.76923076923,-28
31838.46153846154,-33
31846.153846153848,-38
31853.846153846156,-49
31861.53846153846,-61
31869.23076923077,-68
31876.923076923078,-66
31884.615384615387,-64
31892.30769230769,-76
31900.0,-76
31907.69230769231,-59
31915.384615384617,-61
31923.076923076926,-66
31930.76923076923,-49
31938.46153846154,-33
31946.153846153848,-38
31953.846153846156,-49
31961.53846153846,-61
31969.23076923077,-59
31976.923076923078,-47
31984.615384615387,-26
31992.30769230769,-4
32000.0,11
32007.69230769231,23
32015.384615384617,33
32023.076923076926,33
32030.76923076923,21
32038.46153846154,19
32046.153846153848,19
32053.846153846156,11
32061.53846153846,16
32069.23076923077,19
32076.923076923078,-16
32084.615384615387,-59
32092.30769230769,-66
32100.0,-66
32107.69230769231,-66
32115.384615384617,-71
32123.076923076926,-71
32130.76923076923,-61
32138.46153846154,-61
32146.153846153848,-64
32153.846153846156,-54
32161.53846153846,-47
32169.23076923077,-45
32176.923076923078,-35
32184.615384615387,-33
32192.30769230769,-40
32200.0,-33
32207.69230769231,-28
32215.384615384617,-30
32223.076923076926,-21
32230.76923076923,-11
32238.46153846154,-21
32246.153846153848,-21
32253.846153846156,-2
32261.53846153846,-4
32269.23076923077,-14
32276.923076923078,-11
32284.615384615387,-16
32292.30769230769,-26
32300.0,-40
32307.69230769231,-54
32315.384615384617,-49
32323.076923076926,-38
32330.76923076923,-28
32338.46153846154,-30
32346.153846153848,-38
32353.846153846156,-33
32361.53846153846,-21
32369.23076923077,-23
32376.923076923078,-30
32384.615384615387,-21
32392.30769230769,-26
32400.0,-42
32407.69230769231,-38
32415.384615384617,-19
32423.076923076926,-14
32430.76923076923,-85
32438.46153846154,-304
32446.153846153848,-684
32453.846153846156,-900
32461.53846153846,-396
32469.23076923077,304
32476.923076923078,199
32484.615384615387,-135
32492.30769230769,-16
32500.0,73
32507.69230769231,-28
32515.384615384617,-33
32523.076923076926,4
32530.76923076923,-14
32538.46153846154,-19
32546.153846153848,-14
32553.846153846156,-26
32561.53846153846,-38
32569.23076923077,-42
32576.923076923078,-45
32584.615384615387,-45
32592.30769230769,-47
32600.0,-54
32607.69230769231,-66
32615.384615384617,-76
32623.076923076926,-80
32630.76923076923,-73
32638.46153846154,-59
32646.153846153848,-45
32653.846153846156,-61
32661.53846153846,-76
32669.23076923077,-54
32676.923076923078,-35
32684.615384615387,-38
32692.30769230769,-42
32700.0,-47
32707.69230769231,-45
32715.384615384617,-26
32723.076923076926,-2
32730.76923076923,35
32738.46153846154,61
32746.153846153848,45
32753.846153846156,33
32761.53846153846,40
32769.23076923077,40
32776.92307692308,35
32784.61538461538,26
32792.307692307695,4
32800.0,4
32807.69230769231,23
32815.38461538462,19
32823.07692307692,-16
32830.769230769234,-42
32838.46153846154,-45
32846.153846153844,-26
32853.846153846156,-7
32861.53846153846,-19
32869.23076923077,-28
32876.92307692308,-14
32884.61538461538,-11
32892.307692307695,-19
32900.0,-11
32907.69230769231,-11
32915.38461538462,-23
32923.07692307692,-28
32930.769230769234,-38
32938.46153846154,-40
32946.153846153844,-21
32953.846153846156,-4
32961.53846153846,-4
32969.23076923077,-4
32976.92307692308,-2
32984.61538461538,-4
32992.307692307695,-4
33000.0,-7
33007.69230769231,-23
33015.38461538462,-35
33023.07692307692,-30
33030.769230769234,-23
33038.46153846154,-26
33046.153846153844,-23
33053.846153846156,-21
33061.53846153846,-30
33069.23076923077,-33
33076.92307692308,-16
33084.61538461538,-16
33092.307692307695,-35
33100.0,-45
33107.69230769231,-28
33115.38461538462,-23
33123.07692307692,-33
33130.769230769234,-71
33138.46153846154,-220
33146.153846153844,-518
33153.846153846156,-857
33161.53846153846,-810
33169.23076923077,-118
33176.92307692308,330
33184.61538461538,19
33192.307692307695,-185
33200.0,-52
33207.69230769231,-78
33215.38461538462,-152
33223.07692307692,-97
33230.769230769234,-85
33238.46153846154,-135
33246.153846153844,-149
33253.846153846156,-142
33261.53846153846,-137
33269.23076923077,-137
33276.92307692308,-154
33284.61538461538,-156
33292.307692307695,-137
33300.0,-133
33307.69230769231,-149
33315.38461538462,-161
33323.07692307692,-159
33330.769230769234,-156
33338.46153846154,-149
33346.153846153844,-123
33353.846153846156,-99
33361.53846153846,-80
33369.23076923077,-54
33376.92307692308,-49
33384.61538461538,-71
33392.307692307695,-57
33400.0,-38
33407.69230769231,-45
33415.38461538462,-45
33423.07692307692,-38
33430.769230769234,-28
33438.46153846154,-19
33446.153846153844,-7
33453.846153846156,33
33461.53846153846,59
33469.23076923077,21
33476.92307692308,-14
33484.61538461538,-2
33492.307692307695,7
33500.0,-4
33507.69230769231,-16
33515.38461538462,-19
33523.07692307692,-28
33530.769230769234,-54
33538.46153846154,-73
33546.153846153844,-80
33553.846153846156,-64
33561.53846153846,-54
33569.23076923077,-76
33576.92307692308,-95
33584.61538461538,-83
33592.307692307695,-64
33600.0,-61
33607.69230769231,-76
33615.38461538462,-106
33623.07692307692,-121
33630.769230769234,-71
33638.46153846154,-42
33646.153846153844,-57
33653.846153846156,-40
33661.53846153846,-47
33669.23076923077,-104
33676.92307692308,-111
33684.61538461538,-71
33692.307692307695,-87
33700.0,-118
33707.69230769231,-92
33715.38461538462,-49
33723.07692307692,-40
33730.769230769234,-52
33738.46153846154,-52
33746.153846153844,-52
33753.846153846156,-47
33761.53846153846,-45
33769.23076923077,-83
33776.92307692308,-109
33784.61538461538,-83
33792.307692307695,-78
33800.0,-73
33807.69230769231,-23
33815.38461538462,-35
33823.07692307692,-249
33830.769230769234,-560
33838.46153846154,-845
33846.153846153844,-805
33853.846153846156,-154
33861.53846153846,342
33869.23076923077,90
33876.92307692308,-163
33884.61538461538,-66
33892.307692307695,-11
33900.0,-45
33907.69230769231,-42
33915.38461538462,-35
33923.07692307692,-42
33930.769230769234,-54
33938.46153846154,-68
33946.153846153844,-83
33953.846153846156,-99
33961.53846153846,-109
33969.23076923077,-106
33976.92307692308,-78
33984.61538461538,-47
33992.307692307695,-59
34000.0,-97
34007.69230769231,-116
34015.38461538462,-114
34023.07692307692,-102
34030.769230769234,-78
34038.46153846154,-68
34046.153846153844,-85
34053.846153846156,-102
34061.53846153846,-97
34069.23076923077,-114
34076.92307692308,-125
34084.61538461538,-92
34092.307692307695,-99
34100.0,-128
34107.69230769231,-76
34115.38461538462,-35
34123.07692307692,-66
34130.769230769234,-64
34138.46153846154,-38
34146.153846153844,-52
34153.846153846156,-64
34161.53846153846,-47
34169.23076923077,-42
34176.92307692308,-49
34184.61538461538,-68
34192.307692307695,-90
34200.0,-73
34207.69230769231,-40
34215.38461538462,-38
34223.07692307692,-42
34230.769230769234,-33
34238.46153846154,-33
34246.153846153844,-49
34253.846153846156,-59
34261.53846153846,-47
34269.23076923077,-23
34276.92307692308,-23
34284.61538461538,-61
34292.307692307695,-85
34300.0,-28
34307.69230769231,35
34315.38461538462,9
34323.07692307692,-42
34330.769230769234,-38
34338.46153846154,-26
34346.153846153844,-49
34353.846153846156,-76
34361.53846153846,-64
34369.23076923077,-23
34376.92307692308,-16
34384.61538461538,-33
34392.307692307695,-23
34400.0,-35
34407.69230769231,-78
34415.38461538462,-83
34423.07692307692,-61
34430.769230769234,-68
34438.46153846154,-83
34446.153846153844,-64
34453.846153846156,-47
34461.53846153846,-45
34469.23076923077,-59
34476.92307692308,-223
34484.61538461538,-565
34492.307692307695,-879
34500.0,-822
34507.69230769231,-185
34515.38461538462,316
34523.07692307692,85
34530.769230769234,-152
34538.46153846154,-21
34546.153846153844,0
34553.846153846156,-104
34561.53846153846,-106
34569.23076923077,-83
34576.92307692308,-95
34584.61538461538,-78
34592.307692307695,-71
34600.0,-116
34607.69230769231,-154
34615.38461538462,-147
34623.07692307692,-140
34630.769230769234,-133
34638.46153846154,-135
34646.153846153844,-166
34653.846153846156,-182
34661.53846153846,-163
34669.23076923077,-137
34676.92307692308,-142
34684.61538461538,-194
34692.307692307695,-237
34700.0,-220
34707.69230769231,-185
34715.38461538462,-168
34723.07692307692,-159
34730.769230769234,-159
34738.46153846154,-168
34746.153846153844,-166
34753.846153846156,-144
34761.53846153846,-123
34769.23076923077,-121
34776.92307692308,-102
34784.61538461538,-59
34792.307692307695,-54
34800.0,-45
34807.69230769231,9
34815.38461538462,19
34823.07692307692,-2
34830.769230769234,-4
34838.46153846154,-33
34846.153846153844,-26
34853.846153846156,14
34861.53846153846,-11
34869.23076923077,-49
34876.92307692308,-33
34884.61538461538,-9
34892.307692307695,-30
34900.0,-64
34907.69230769231,-38
34915.38461538462,23
34923.07692307692,21
34930.769230769234,-19
34938.46153846154,-2
34946.153846153844,7
34953.846153846156,-40
34961.53846153846,-49
34969.23076923077,-2
34976.92307692308,0
34984.61538461538,-38
34992.307692307695,-28
35000.0,9
35007.69230769231,4
35015.38461538462,-14
35023.07692307692,-2
35030.769230769234,9
35038.46153846154,-9
35046.153846153844,-26
35053.846153846156,-16
35061.53846153846,-16
35069.23076923077,-42
35076.92307692308,-40
35084.61538461538,0
35092.307692307695,-21
35100.0,-182
35107.69230769231,-477
35115.38461538462,-831
35123.07692307692,-898
35130.769230769234,-270
35138.46153846154,354
35146.153846153844,149
35153.846153846156,-147
35161.53846153846,14
35169.23076923077,83
35176.92307692308,-21
35184.61538461538,-16
35192.307692307695,-30
35200.0,-68
35207.69230769231,-7
35215.38461538462,11
35223.07692307692,-16
35230.769230769234,47
35238.46153846154,47
35246.153846153844,-71
35253.846153846156,-123
35261.53846153846,-66
35269.23076923077,23
35276.92307692308,83
35284.61538461538,38
35292.307692307695,-61
35300.0,-49
35307.69230769231,28
35315.38461538462,35
35323.07692307692,52
35330.769230769234,57
35338.46153846154,-21
35346.153846153844,-111
35353.846153846156,-159
35361.53846153846,-73
35369.23076923077,109
35376.92307692308,185
35384.61538461538,230
35392.307692307695,396
35400.0,522
35407.69230769231,560
35415.38461538462,662
35423.07692307692,791
35430.769230769234,898
35438.46153846154,971
35446.153846153844,988
35453.846153846156,1093
35461.53846153846,1290
35469.23076923077,1383
35476.92307692308,1435
35484.61538461538,1570
35492.307692307695,1684
35500.0,1784
35507.69230769231,1903
35515.38461538462,2019
35523.07692307692,2183
35530.769230769234,2340
35538.46153846154,2442
35546.153846153844,2568
35553.846153846156,2718
35561.53846153846,2813
35569.23076923077,2844
35576.92307692308,2891
35584.61538461538,2996
35592.307692307695,3053
35600.0,3041
35607.69230769231,3079
35615.38461538462,3131
35623.07692307692,3136
35630.769230769234,3179
35638.46153846154,3238
35646.153846153844,3234
35653.846153846156,3224
35661.53846153846,3234
35669.23076923077,3238
35676.92307692308,3229
35684.61538461538,3238
35692.307692307695,3383
35700.0,3526
35707.69230769231,3497
35715.38461538462,3559
35723.07692307692,3756
35730.769230769234,3797
35738.46153846154,3699
35746.153846153844,3602
35753.846153846156,3614
35761.53846153846,4146
35769.23076923077,5061
35776.92307692308,5432
35784.61538461538,5349
35792.307692307695,5536
35800.0,5810
35807.69230769231,5916
35815.38461538462,6033
35823.07692307692,6187
35830.769230769234,6306
35838.46153846154,6370
35846.153846153844,6394
35853.846153846156,6475
35861.53846153846,6625
35869.23076923077,6736
35876.92307692308,6796
35884.61538461538,6877
35892.307692307695,6917
35900.0,6888
35907.69230769231,7064
35915.38461538462,7373
35923.07692307692,7416
35930.769230769234,7395
35938.46153846154,7537
35946.153846153844,7658
35953.846153846156,7777
35961.53846153846,8046
35969.23076923077,8345
35976.92307692308,8500
35984.61538461538,8649
35992.307692307695,8854
36000.0,8884
36007.69230769231,8892
36015.38461538462,9105
36023.07692307692,9319
36030.769230769234,9495
36038.46153846154,9811
36046.153846153844,10199
36053.846153846156,10650
36061.53846153846,11232
36069.23076923077,11750
36076.92307692308,12062
36084.61538461538,12259
36092.307692307695,12368
36100.0,12378
36107.69230769231,12211
36115.38461538462,11705
36123.07692307692,10854
36130.769230769234,9797
36138.46153846154,8699
36146.153846153844,7744
36153.846153846156,7007
36161.53846153846,6451
36169.23076923077,6028
36176.92307692308,5726
36184.61538461538,5565
36192.307692307695,5510
36200.0,5451
36207.69230769231,5303
36215.38461538462,5063
36223.07692307692,4823
36230.769230769234,4700
36238.46153846154,4678
36246.153846153844,4593
36253.846153846156,4374
36261.53846153846,4106
36269.23076923077,3813
36276.92307692308,3455
36284.61538461538,3032
36292.307692307695,2580
36300.0,2117
36307.69230769231,1691
36315.38461538462,1295
36323.07692307692,815
36330.769230769234,325
36338.46153846154,-116
36346.153846153844,-667
36353.846153846156,-1328
36361.53846153846,-1920
36369.23076923077,-2164
36376.92307692308,-1972
36384.61538461538,-1979
36392.307692307695,-2542
36400.0,-3020
36407.69230769231,-3224
36415.38461538462,-3543
36423.07692307692,-3913
36430.769230769234,-4175
36438.46153846154,-4419
36446.153846153844,-4640
36453.846153846156,-4785
36461.53846153846,-4914
36469.23076923077,-5044
36476.92307692308,-5163
36484.61538461538,-5254
36492.307692307695,-5263
36500.0,-5225
36507.69230769231,-5242
36515.38461538462,-5268
36523.07692307692,-5322
36530.769230769234,-5465
36538.46153846154,-5470
36546.153846153844,-5294
36553.846153846156,-5265
36561.53846153846,-5363
36569.23076923077,-5398
36576.92307692308,-5422
36584.61538461538,-5432
36592.307692307695,-5429
36600.0,-5479
36607.69230769231,-5541
36615.38461538462,-5596
36623.07692307692,-5655
36630.769230769234,-5681
36638.46153846154,-5691
36646.153846153844,-5729
36653.846153846156,-5772
36661.53846153846,-5812
36669.23076923077,-5829
36676.92307692308,-5776
36684.61538461538,-5722
36692.307692307695,-5707
36700.0,-5741
36707.69230769231,-5814
36715.38461538462,-5750
36723.07692307692,-5560
36730.769230769234,-5467
36738.46153846154,-5434
36746.153846153844,-5365
36753.846153846156,-5349
36761.53846153846,-5332
36769.23076923077,-5213
36776.92307692308,-5116
36784.61538461538,-5085
36792.307692307695,-5023
36800.0,-4949
36807.69230769231,-4864
36815.38461538462,-4719
36823.07692307692,-4591
36830.769230769234,-4514
36838.46153846154,-4431
36846.153846153844,-4353
36853.846153846156,-4263
36861.53846153846,-4127
36869.23076923077,-4001
36876.92307692308,-3899
36884.61538461538,-3802
36892.307692307695,-3709
36900.0,-3588
36907.69230769231,-3431
36915.38461538462,-3307
36923.07692307692,-3295
36930.769230769234,-3474
36938.46153846154,-3790
36946.153846153844,-3994
36953.846153846156,-3583
36961.53846153846,-2708
36969.23076923077,-2480
36976.92307692308,-2853
36984.61538461538,-2856
36992.307692307695,-2642
37000.0,-2637
37007.69230769231,-2628
37015.38461538462,-2537
37023.07692307692,-2514
37030.769230769234,-2506
37038.46153846154,-2447
37046.153846153844,-2385
37053.846153846156,-2347
37061.53846153846,-2326
37069.23076923077,-2307
37076.92307692308,-2297
37084.61538461538,-2276
37092.307692307695,-2224
37100.0,-2183
37107.69230769231,-2198
37115.38461538462,-2243
37123.07692307692,-2224
37130.769230769234,-2119
37138.46153846154,-2067
37146.153846153844,-2076
37153.846153846156,-2055
37161.53846153846,-2015
37169.23076923077,-1996
37176.92307692308,-1977
37184.61538461538,-1941
37192.307692307695,-1903
37200.0,-1884
37207.69230769231,-1872
37215.38461538462,-1834
37223.07692307692,-1775
37230.769230769234,-1732
37238.46153846154,-1710
37246.153846153844,-1691
37253.846153846156,-1672
37261.53846153846,-1653
37269.23076923077,-1630
37276.92307692308,-1606
37284.61538461538,-1582
37292.307692307695,-1568
37300.0,-1561
37307.69230769231,-1549
37315.38461538462,-1532
37323.07692307692,-1506
37330.769230769234,-1478
37338.46153846154,-1468
37346.153846153844,-1451
37353.846153846156,-1428
37361.53846153846,-1406
37369.23076923077,-1375
37376.92307692308,-1340
37384.61538461538,-1325
37392.307692307695,-1323
37400.0,-1297
37407.69230769231,-1264
37415.38461538462,-1228
37423.07692307692,-1204
37430.769230769234,-1192
37438.46153846154,-1166
37446.153846153844,-1138
37453.846153846156,-1131
37461.53846153846,-1114
37469.23076923077,-1097
37476.92307692308,-1083
37484.61538461538,-1057
37492.307692307695,-1024
37500.0,-998
37507.69230769231,-974
37515.38461538462,-1045
37523.07692307692,-1316
37530.769230769234,-1708
37538.46153846154,-1960
37546.153846153844,-1511
37553.846153846156,-629
37561.53846153846,-541
37569.23076923077,-967
37576.92307692308,-902
37584.61538461538,-734
37592.307692307695,-826
37600.0,-843
37607.69230769231,-777
37615.38461538462,-796
37623.07692307692,-815
37630.769230769234,-793
37638.46153846154,-791
37646.153846153844,-791
37653.846153846156,-781
37661.53846153846,-777
37669.23076923077,-767
37676.92307692308,-762
37684.61538461538,-765
37692.307692307695,-758
37700.0,-769
37707.69230769231,-800
37715.38461538462,-788
37723.07692307692,-753
37730.769230769234,-741
37738.46153846154,-734
37746.153846153844,-720
37753.846153846156,-708
37761.53846153846,-696
37769.23076923077,-691
37776.92307692308,-679
37784.61538461538,-646
37792.307692307695,-620
37800.0,-608
37807.69230769231,-575
37815.38461538462,-541
37823.07692307692,-532
37830.769230769234,-529
37838.46153846154,-527
37846.153846153844,-522
37853.846153846156,-510
37861.53846153846,-501
37869.23076923077,-501
37876.92307692308,-513
37884.61538461538,-532
37892.307692307695,-539
37900.0,-537
37907.69230769231,-537
37915.38461538462,-529
37923.07692307692,-529
37930.769230769234,-534
37938.46153846154,-518
37946.153846153844,-499
37953.846153846156,-494
37961.53846153846,-496
37969.23076923077,-501
37976.92307692308,-499
37984.61538461538,-482
37992.307692307695,-470
38000.0,-472
38007.69230769231,-480
38015.38461538462,-465
38023.07692307692,-441
38030.769230769234,-437
38038.46153846154,-432
38046.153846153844,-427
38053.846153846156,-430
38061.53846153846,-418
38069.23076923077,-399
38076.92307692308,-406
38084.61538461538,-420
38092.307692307695,-396
38100.0,-368
38107.69230769231,-384
38115.38461538462,-534
38123.07692307692,-898
38130.769230769234,-1375
38138.46153846154,-1373
38146.153846153844,-525
38153.846153846156,64
38161.53846153846,-275
38169.23076923077,-475
38176.92307692308,-249
38184.61538461538,-251
38192.307692307695,-361
38200.0,-311
38207.69230769231,-282
38215.38461538462,-327
38223.07692307692,-330
38230.769230769234,-308
38238.46153846154,-332
38246.153846153844,-356
38253.846153846156,-330
38261.53846153846,-311
38269.23076923077,-313
38276.92307692308,-311
38284.61538461538,-311
38292.307692307695,-318
38300.0,-306
38307.69230769231,-294
38315.38461538462,-282
38323.07692307692,-268
38330.769230769234,-266
38338.46153846154,-263
38346.153846153844,-256
38353.846153846156,-259
38361.53846153846,-263
38369.23076923077,-259
38376.92307692308,-244
38384.61538461538,-223
38392.307692307695,-194
38400.0,-175
38407.69230769231,-161
38415.38461538462,-149
38423.07692307692,-147
38430.769230769234,-142
38438.46153846154,-133
38446.153846153844,-135
38453.846153846156,-147
38461.53846153846,-152
38469.23076923077,-161
38476.92307692308,-168
38484.61538461538,-163
38492.307692307695,-171
38500.0,-185
38507.69230769231,-190
38515.38461538462,-194
38523.07692307692,-194
38530.769230769234,-187
38538.46153846154,-180
38546.153846153844,-180
38553.846153846156,-190
38561.53846153846,-190
38569.23076923077,-178
38576.92307692308,-175
38584.61538461538,-178
38592.307692307695,-175
38600.0,-180
38607.69230769231,-185
38615.38461538462,-171
38623.07692307692,-154
38630.769230769234,-149
38638.46153846154,-144
38646.153846153844,-147
38653.846153846156,-154
38661.53846153846,-154
38669.23076923077,-149
38676.92307692308,-144
38684.61538461538,-142
38692.307692307695,-144
38700.0,-144
38707.69230769231,-128
38715.38461538462,-106
38723.07692307692,-123
38730.769230769234,-270
38738.46153846154,-636
38746.153846153844,-1114
38753.846153846156,-1090
38761.53846153846,-244
38769.23076923077,294
38776.92307692308,-52
38784.61538461538,-235
38792.307692307695,-19
38800.0,-23
38807.69230769231,-121
38815.38461538462,-73
38823.07692307692,-66
38830.769230769234,-128
38838.46153846154,-123
38846.153846153844,-95
38853.846153846156,-109
38861.53846153846,-118
38869.23076923077,-116
38876.92307692308,-125
38884.61538461538,-133
38892.307692307695,-130
38900.0,-128
38907.69230769231,-133
38915.38461538462,-137
38923.07692307692,-140
38930.769230769234,-142
38938.46153846154,-140
38946.153846153844,-133
38953.846153846156,-130
38961.53846153846,-135
38969.23076923077,-144
38976.92307692308,-147
38984.61538461538,-142
38992.307692307695,-128
39000.0,-104
39007.69230769231,-78
39015.38461538462,-54
39023.07692307692,-35
39030.769230769234,-19
39038.46153846154,-7
39046.153846153844,-4
39053.846153846156,-9
39061.53846153846,-16
39069.23076923077,-23
39076.92307692308,-30
39084.61538461538,-38
39092.307692307695,-47
39100.0,-59
39107.69230769231,-71
39115.38461538462,-78
39123.07692307692,-85
39130.769230769234,-92
39138.46153846154,-99
39146.153846153844,-104
39153.846153846156,-109
39161.53846153846,-111
39169.23076923077,-111
39176.92307692308,-106
39184.61538461538,-106
39192.307692307695,-109
39200.0,-106
39207.69230769231,-104
39215.38461538462,-102
39223.07692307692,-102
39230.769230769234,-118
39238.46153846154,-123
39246.153846153844,-114
39253.846153846156,-118
39261.53846153846,-121
39269.23076923077,-109
39276.92307692308,-102
39284.61538461538,-106
39292.307692307695,-104
39300.0,-97
39307.69230769231,-95
39315.38461538462,-95
39323.07692307692,-97
39330.769230769234,-97
39338.46153846154,-95
39346.153846153844,-95
39353.846153846156,-90
39361.53846153846,-92
39369.23076923077,-99
39376.92307692308,-140
39384.61538461538,-325
39392.307692307695,-731
39400.0,-1102
39407.69230769231,-758
39415.38461538462,106
39423.07692307692,254
39430.769230769234,-163
39438.46153846154,-137
39446.153846153844,30
39453.846153846156,-61
39461.53846153846,-104
39469.23076923077,-47
39476.92307692308,-66
39484.61538461538,-97
39492.307692307695,-87
39500.0,-85
39507.69230769231,-95
39515.38461538462,-97
39523.07692307692,-104
39530.769230769234,-116
39538.46153846154,-116
39546.153846153844,-118
39553.846153846156,-128
39561.53846153846,-130
39569.23076923077,-130
39576.92307692308,-135
39584.61538461538,-137
39592.307692307695,-137
39600.0,-137
39607.69230769231,-137
39615.38461538462,-144
39623.07692307692,-154
39630.769230769234,-156
39638.46153846154,-152
39646.153846153844,-137
39653.846153846156,-106
39661.53846153846,-73
39669.23076923077,-45
39676.92307692308,-23
39684.61538461538,-16
39692.307692307695,-14
39700.0,-11
39707.69230769231,-14
39715.38461538462,-16
39723.07692307692,-26
39730.769230769234,-45
39738.46153846154,-52
39746.153846153844,-45
39753.846153846156,-47
39761.53846153846,-59
39769.23076923077,-61
39776.92307692308,-59
39784.61538461538,-57
39792.307692307695,-59
39800.0,-66
39807.69230769231,-66
39815.38461538462,-66
39823.07692307692,-73
39830.769230769234,-71
39838.46153846154,-59
39846.153846153844,-66
39853.846153846156,-76
39861.53846153846,-64
39869.23076923077,-54
39876.92307692308,-59
39884.61538461538,-71
39892.307692307695,-71
39900.0,-64
39907.69230769231,-76
39915.38461538462,-90
39923.07692307692,-83
39930.769230769234,-78
39938.46153846154,-78
39946.153846153844,-78
39953.846153846156,-80
39961.53846153846,-76
39969.23076923077,-73
39976.92307692308,-87
39984.61538461538,-97
39992.307692307695,-90
40000.0,-83
40007.69230769231,-71
40015.38461538462,-47
40023.07692307692,-38
40030.769230769234,-57
40038.46153846154,-68
40046.153846153844,-66
40053.846153846156,-61
40061.53846153846,-38
40069.23076923077,-11
40076.92307692308,-80
40084.61538461538,-320
40092.307692307695,-693
40100.0,-998
40107.69230769231,-658
40115.38461538462,159
40123.07692307692,268
40130.769230769234,-147
40138.46153846154,-97
40146.153846153844,85
40153.846153846156,-4
40161.53846153846,-61
40169.23076923077,-26
40176.92307692308,-42
40184.61538461538,-61
40192.307692307695,-52
40200.0,-57
40207.69230769231,-66
40215.38461538462,-57
40223.07692307692,-59
40230.769230769234,-85
40238.46153846154,-104
40246.153846153844,-102
40253.846153846156,-97
40261.53846153846,-92
40269.23076923077,-97
40276.92307692308,-123
40284.61538461538,-125
40292.307692307695,-97
40300.0,-83
40307.69230769231,-92
40315.38461538462,-95
40323.07692307692,-85
40330.769230769234,-80
40338.46153846154,-80
40346.153846153844,-68
40353.846153846156,-49
40361.53846153846,-33
40369.23076923077,-11
40376.92307692308,11
40384.61538461538,19
40392.307692307695,21
40400.0,14
40407.69230769231,9
40415.38461538462,9
40423.07692307692,-9
40430.769230769234,-33
40438.46153846154,-38
40446.153846153844,-40
40453.846153846156,-45
40461.53846153846,-42
40469.23076923077,-49
40476.92307692308,-61
40484.61538461538,-71
40492.307692307695,-92
40500.0,-109
40507.69230769231,-95
40515.38461538462,-80
40523.07692307692,-83
40530.769230769234,-90
40538.46153846154,-95
40546.153846153844,-95
40553.846153846156,-87
40561.53846153846,-87
40569.23076923077,-92
40576.92307692308,-90
40584.61538461538,-90
40592.307692307695,-97
40600.0,-90
40607.69230769231,-78
40615.38461538462,-92
40623.07692307692,-114
40630.769230769234,-114
40638.46153846154,-95
40646.153846153844,-83
40653.846153846156,-87
40661.53846153846,-92
40669.23076923077,-95
40676.92307692308,-104
40684.61538461538,-104
40692.307692307695,-97
40700.0,-106
40707.69230769231,-118
40715.38461538462,-123
40723.07692307692,-135
40730.769230769234,-142
40738.46153846154,-137
40746.153846153844,-137
40753.846153846156,-135
40761.53846153846,-125
40769.23076923077,-133
40776.92307692308,-135
40784.61538461538,-123
40792.307692307695,-123
40800.0,-128
40807.69230769231,-123
40815.38461538462,-118
40823.07692307692,-114
40830.769230769234,-104
40838.46153846154,-144
40846.153846153844,-325
40853.846153846156,-672
40861.53846153846,-1005
40869.23076923077,-760
40876.92307692308,28
40884.61538461538,244
40892.307692307695,-154
40900.0,-190
40907.69230769231,-16
40915.38461538462,-80
40923.07692307692,-128
40930.769230769234,-71
40938.46153846154,-83
40946.153846153844,-125
40953.846153846156,-118
40961.53846153846,-118
40969.23076923077,-133
40976.92307692308,-123
40984.61538461538,-118
40992.307692307695,-137
41000.0,-152
41007.69230769231,-152
41015.38461538462,-152
41023.07692307692,-154
41030.769230769234,-154
41038.46153846154,-154
41046.153846153844,-152
41053.846153846156,-152
41061.53846153846,-147
41069.23076923077,-135
41076.92307692308,-137
41084.61538461538,-142
41092.307692307695,-135
41100.0,-135
41107.69230769231,-128
41115.38461538462,-109
41123.07692307692,-99
41130.769230769234,-83
41138.46153846154,-42
41146.153846153844,-14
41153.846153846156,-21
41161.53846153846,-26
41169.23076923077,-19
41176.92307692308,-16
41184.61538461538,-26
41192.307692307695,-33
41200.0,-35
41207.69230769231,-47
41215.38461538462,-71
41223.07692307692,-80
41230.769230769234,-78
41238.46153846154,-90
41246.153846153844,-116
41253.846153846156,-123
41261.53846153846,-118
41269.23076923077,-121
41276.92307692308,-121
41284.61538461538,-121
41292.307692307695,-125
41300.0,-118
41307.69230769231,-111
41315.38461538462,-111
41323.07692307692,-111
41330.769230769234,-109
41338.46153846154,-111
41346.153846153844,-116
41353.846153846156,-123
41361.53846153846,-116
41369.23076923077,-92
41376.92307692308,-83
41384.61538461538,-95
41392.307692307695,-99
41400.0,-87
41407.69230769231,-83
41415.38461538462,-90
41423.07692307692,-99
41430.769230769234,-102
41438.46153846154,-95
41446.153846153844,-76
41453.846153846156,-71
41461.53846153846,-85
41469.23076923077,-90
41476.92307692308,-90
41484.61538461538,-99
41492.307692307695,-97
41500.0,-73
41507.69230769231,-68
41515.38461538462,-83
41523.07692307692,-85
41530.769230769234,-80
41538.46153846154,-87
41546.153846153844,-95
41553.846153846156,-92
41561.53846153846,-95
41569.23076923077,-104
41576.92307692308,-95
41584.61538461538,-61
41592.307692307695,-61
41600.0,-201
41607.69230769231,-496
41615.38461538462,-867
41623.07692307692,-967
41630.769230769234,-351
41638.46153846154,275
41646.153846153844,71
41653.846153846156,-216
41661.53846153846,-71
41669.23076923077,-21
41676.92307692308,-109
41684.61538461538,-87
41692.307692307695,-57
41700.0,-92
41707.69230769231,-104
41715.38461538462,-83
41723.07692307692,-73
41730.769230769234,-59
41738.46153846154,-42
41746.153846153844,-57
41753.846153846156,-68
41761.53846153846,-30
41769.23076923077,19
41776.92307692308,35
41784.61538461538,9
41792.307692307695,-26
41800.0,-47
41807.69230769231,-57
41815.38461538462,-59
41823.07692307692,-66
41830.769230769234,-83
41838.46153846154,-106
41846.153846153844,-123
41853.846153846156,-137
41861.53846153846,-156
41869.23076923077,-173
41876.92307692308,-161
41884.61538461538,-133
41892.307692307695,-116
41900.0,-114
41907.69230769231,-102
41915.38461538462,-85
41923.07692307692,-90
41930.769230769234,-97
41938.46153846154,-90
41946.153846153844,-90
41953.846153846156,-99
41961.53846153846,-95
41969.23076923077,-97
41976.92307692308,-116
41984.61538461538,-114
41992.307692307695,-97
42000.0,-99
42007.69230769231,-111
42015.38461538462,-118
42023.07692307692,-123
42030.769230769234,-118
42038.46153846154,-106
42046.153846153844,-106
42053.846153846156,-111
42061.53846153846,-111
42069.23076923077,-111
42076.92307692308,-109
42084.61538461538,-104
42092.307692307695,-104
42100.0,-102
42107.69230769231,-104
42115.38461538462,-116
42123.07692307692,-118
42130.769230769234,-111
42138.46153846154,-111
42146.153846153844,-116
42153.846153846156,-133
42161.53846153846,-154
42169.23076923077,-147
42176.92307692308,-130
42184.61538461538,-133
42192.307692307695,-137
42200.0,-142
42207.69230769231,-154
42215.38461538462,-156
42223.07692307692,-152
42230.769230769234,-154
42238.46153846154,-147
42246.153846153844,-135
42253.846153846156,-142
42261.53846153846,-159
42269.23076923077,-144
42276.92307692308,-125
42284.61538461538,-133
42292.307692307695,-152
42300.0,-154
42307.69230769231,-147
42315.38461538462,-147
42323.07692307692,-149
42330.769230769234,-140
42338.46153846154,-135
42346.153846153844,-223
42353.846153846156,-477
42361.53846153846,-819
42369.23076923077,-1021
42376.92307692308,-643
42384.61538461538,99
42392.307692307695,197
42400.0,-175
42407.69230769231,-187
42415.38461538462,-83
42423.07692307692,-156
42430.769230769234,-187
42438.46153846154,-149
42446.153846153844,-154
42453.846153846156,-166
42461.53846153846,-159
42469.23076923077,-171
42476.92307692308,-190
42484.61538461538,-187
42492.307692307695,-180
42500.0,-192
42507.69230769231,-201
42515.38461538462,-194
