timestamp,ecg
0.0,-815
7.6923076923076925,-810
15.384615384615385,-822
23.076923076923077,-855
30.76923076923077,-886
38.46153846153846,-902
46.15384615384615,-926
53.84615384615385,-945
61.53846153846154,-943
69.23076923076923,-943
76.92307692307692,-931
84.61538461538461,-912
92.3076923076923,-902
100.0,-895
107.6923076923077,-888
115.38461538461539,-883
123.07692307692308,-879
130.76923076923077,-864
138.46153846153845,-848
146.15384615384616,-841
153.84615384615384,-843
161.53846153846155,-836
169.23076923076923,-826
176.92307692307693,-817
184.6153846153846,-810
192.30769230769232,-807
200.0,-812
207.6923076923077,-805
215.3846153846154,-784
223.0769230769231,-798
230.76923076923077,-829
238.46153846153848,-803
246.15384615384616,-774
253.84615384615384,-788
261.53846153846155,-779
269.2307692307692,-762
276.9230769230769,-769
284.61538461538464,-772
292.3076923076923,-772
300.0,-777
307.6923076923077,-779
315.3846153846154,-788
323.0769230769231,-798
330.7692307692308,-793
338.46153846153845,-779
346.1538461538462,-765
353.84615384615387,-750
361.53846153846155,-753
369.2307692307692,-777
376.9230769230769,-788
384.61538461538464,-812
392.3076923076923,-843
400.0,-841
407.6923076923077,-831
415.3846153846154,-841
423.0769230769231,-850
430.7692307692308,-857
438.46153846153845,-867
446.1538461538462,-874
453.84615384615387,-876
461.53846153846155,-872
469.2307692307692,-874
476.92307692307696,-888
484.61538461538464,-919
492.3076923076923,-1005
500.0,-1119
507.6923076923077,-1071
515.3846153846154,-696
523.0769230769231,26
530.7692307692308,836
538.4615384615385,853
546.1538461538462,-268
553.8461538461538,-1245
561.5384615384615,-1261
569.2307692307693,-1102
576.9230769230769,-1195
584.6153846153846,-1200
592.3076923076924,-1119
600.0,-1109
607.6923076923077,-1107
615.3846153846154,-1076
623.0769230769231,-1081
630.7692307692308,-1109
638.4615384615385,-1085
646.1538461538462,-1021
653.8461538461538,-998
661.5384615384615,-1002
669.2307692307693,-993
676.9230769230769,-981
684.6153846153846,-962
692.3076923076924,-938
700.0,-924
707.6923076923077,-914
715.3846153846154,-907
723.0769230769231,-898
730.7692307692308,-895
738.4615384615385,-891
746.1538461538462,-853
753.8461538461538,-824
761.5384615384615,-829
769.2307692307693,-817
776.9230769230769,-791
784.6153846153846,-800
792.3076923076924,-831
800.0,-860
807.6923076923077,-895
815.3846153846154,-917
823.0769230769231,-922
830.7692307692308,-931
838.4615384615385,-936
846.1538461538462,-933
853.8461538461539,-941
861.5384615384615,-929
869.2307692307693,-907
876.9230769230769,-898
884.6153846153846,-893
892.3076923076924,-895
900.0,-905
907.6923076923077,-893
915.3846153846154,-874
923.0769230769231,-867
930.7692307692308,-872
938.4615384615385,-874
946.1538461538462,-886
953.8461538461539,-879
961.5384615384615,-857
969.2307692307693,-855
976.9230769230769,-862
984.6153846153846,-867
992.3076923076924,-869
1000.0,-857
1007.6923076923077,-845
1015.3846153846154,-843
1023.0769230769231,-836
1030.7692307692307,-845
1038.4615384615386,-855
1046.1538461538462,-836
1053.8461538461538,-819
1061.5384615384617,-819
1069.2307692307693,-819
1076.923076923077,-817
1084.6153846153848,-819
1092.3076923076924,-810
1100.0,-796
1107.6923076923076,-798
1115.3846153846155,-803
1123.076923076923,-815
1130.7692307692307,-817
1138.4615384615386,-772
1146.1538461538462,-727
1153.8461538461538,-724
1161.5384615384617,-731
1169.2307692307693,-746
1176.923076923077,-758
1184.6153846153848,-758
1192.3076923076924,-762
1200.0,-755
1207.6923076923076,-758
1215.3846153846155,-803
1223.076923076923,-817
1230.7692307692307,-769
1238.4615384615386,-767
1246.1538461538462,-793
1253.8461538461538,-765
1261.5384615384617,-748
1269.2307692307693,-760
1276.923076923077,-736
1284.6153846153848,-731
1292.3076923076924,-819
1300.0,-948
1307.6923076923076,-933
1315.3846153846155,-594
1323.076923076923,125
1330.7692307692307,1014
1338.4615384615386,1223
1346.1538461538462,197
1353.8461538461538,-955
1361.5384615384617,-1109
1369.2307692307693,-886
1376.923076923077,-943
1384.6153846153848,-971
1392.3076923076924,-891
1400.0,-893
1407.6923076923076,-886
1415.3846153846155,-829
1423.076923076923,-810
1430.7692307692307,-810
1438.4615384615386,-788
1446.1538461538462,-781
1453.8461538461538,-767
1461.5384615384617,-734
1469.2307692307693,-715
1476.923076923077,-717
1484.6153846153848,-708
1492.3076923076924,-698
1500.0,-689
1507.6923076923076,-665
1515.3846153846155,-639
1523.076923076923,-629
1530.7692307692307,-627
1538.4615384615386,-608
1546.1538461538462,-586
1553.8461538461538,-572
1561.5384615384617,-553
1569.2307692307693,-546
1576.923076923077,-556
1584.6153846153848,-565
1592.3076923076924,-589
1600.0,-627
1607.6923076923076,-660
1615.3846153846155,-689
1623.076923076923,-717
1630.7692307692307,-741
1638.4615384615386,-741
1646.1538461538462,-727
1653.8461538461538,-724
1661.5384615384617,-729
1669.2307692307693,-724
1676.923076923077,-712
1684.6153846153848,-703
1692.3076923076924,-698
1700.0,-696
1707.6923076923078,-696
1715.3846153846155,-689
1723.076923076923,-681
1730.7692307692307,-689
1738.4615384615386,-689
1746.1538461538462,-703
1753.8461538461538,-758
1761.5384615384617,-758
1769.2307692307693,-698
1776.923076923077,-684
1784.6153846153848,-689
1792.3076923076924,-674
1800.0,-672
1807.6923076923078,-677
1815.3846153846155,-670
1823.076923076923,-665
1830.7692307692307,-665
1838.4615384615386,-660
1846.1538461538462,-662
1853.8461538461538,-662
1861.5384615384617,-648
1869.2307692307693,-651
1876.923076923077,-651
1884.6153846153848,-648
1892.3076923076924,-653
1900.0,-648
1907.6923076923078,-646
1915.3846153846155,-658
1923.076923076923,-658
1930.7692307692307,-646
1938.4615384615386,-624
1946.1538461538462,-596
1953.8461538461538,-591
1961.5384615384617,-598
1969.2307692307693,-598
1976.923076923077,-608
1984.6153846153848,-632
1992.3076923076924,-641
2000.0,-632
2007.6923076923078,-627
2015.3846153846155,-627
2023.076923076923,-629
2030.7692307692307,-634
2038.4615384615386,-634
2046.1538461538462,-632
2053.846153846154,-629
2061.5384615384614,-624
2069.2307692307695,-636
2076.923076923077,-641
2084.6153846153848,-653
2092.3076923076924,-765
2100.0,-891
2107.6923076923076,-774
2115.3846153846152,-306
2123.0769230769233,508
2130.769230769231,1321
2138.4615384615386,1138
2146.153846153846,-125
2153.846153846154,-1014
2161.5384615384614,-948
2169.2307692307695,-815
2176.923076923077,-910
2184.6153846153848,-891
2192.3076923076924,-826
2200.0,-831
2207.6923076923076,-815
2215.3846153846152,-774
2223.0769230769233,-760
2230.769230769231,-755
2238.4615384615386,-736
2246.153846153846,-717
2253.846153846154,-727
2261.5384615384614,-736
2269.2307692307695,-708
2276.923076923077,-677
2284.6153846153848,-674
2292.3076923076924,-691
2300.0,-703
2307.6923076923076,-662
2315.3846153846152,-610
2323.0769230769233,-598
2330.769230769231,-594
2338.4615384615386,-572
2346.153846153846,-553
2353.846153846154,-537
2361.5384615384614,-515
2369.2307692307695,-510
2376.923076923077,-522
2384.6153846153848,-537
2392.3076923076924,-565
2400.0,-598
2407.6923076923076,-622
2415.3846153846152,-651
2423.0769230769233,-674
2430.769230769231,-686
2438.4615384615386,-686
2446.153846153846,-679
2453.846153846154,-672
2461.5384615384614,-672
2469.2307692307695,-674
2476.923076923077,-667
2484.6153846153848,-653
2492.3076923076924,-646
2500.0,-641
2507.6923076923076,-639
2515.3846153846152,-646
2523.0769230769233,-648
2530.769230769231,-636
2538.4615384615386,-624
2546.153846153846,-622
2553.846153846154,-634
2561.5384615384614,-643
2569.2307692307695,-641
2576.923076923077,-627
2584.6153846153848,-620
2592.3076923076924,-627
2600.0,-629
2607.6923076923076,-632
2615.3846153846152,-636
2623.0769230769233,-622
2630.769230769231,-610
2638.4615384615386,-615
2646.153846153846,-627
2653.846153846154,-636
2661.5384615384614,-629
2669.2307692307695,-615
2676.923076923077,-613
2684.6153846153848,-613
2692.3076923076924,-617
2700.0,-632
2707.6923076923076,-634
2715.3846153846152,-624
2723.0769230769233,-617
2730.769230769231,-596
2738.4615384615386,-567
2746.153846153846,-563
2753.846153846154,-570
2761.5384615384614,-582
2769.2307692307695,-605
2776.923076923077,-603
2784.6153846153848,-591
2792.3076923076924,-596
2800.0,-572
2807.6923076923076,-548
2815.3846153846152,-553
2823.0769230769233,-551
2830.769230769231,-558
2838.4615384615386,-577
2846.153846153846,-548
2853.846153846154,-499
2861.5384615384614,-482
2869.2307692307695,-477
2876.923076923077,-484
2884.6153846153848,-577
2892.3076923076924,-677
2900.0,-563
2907.6923076923076,-125
2915.3846153846152,681
2923.0769230769233,1558
2930.769230769231,1489
2938.4615384615386,254
2946.153846153846,-708
2953.846153846154,-679
2961.5384615384614,-527
2969.2307692307695,-624
2976.923076923077,-613
2984.6153846153848,-510
2992.3076923076924,-508
3000.0,-501
3007.6923076923076,-444
3015.3846153846152,-427
3023.0769230769233,-418
3030.769230769231,-375
3038.4615384615386,-335
3046.153846153846,-313
3053.846153846154,-297
3061.5384615384614,-280
3069.2307692307695,-261
3076.923076923077,-230
3084.6153846153848,-199
3092.3076923076924,-178
3100.0,-161
3107.6923076923076,-147
3115.3846153846152,-128
3123.0769230769233,-92
3130.769230769231,-68
3138.4615384615386,-54
3146.153846153846,-35
3153.846153846154,-16
3161.5384615384614,-2
3169.2307692307695,2
3176.923076923077,-7
3184.6153846153848,-33
3192.3076923076924,-68
3200.0,-106
3207.6923076923076,-118
3215.3846153846152,-114
3223.0769230769233,-121
3230.769230769231,-133
3238.4615384615386,-118
3246.153846153846,-99
3253.846153846154,-87
3261.5384615384614,-78
3269.2307692307695,-80
3276.923076923077,-68
3284.6153846153848,-30
3292.3076923076924,-9
3300.0,-7
3307.6923076923076,7
3315.3846153846157,30
3323.0769230769233,45
3330.769230769231,47
3338.4615384615386,61
3346.153846153846,80
3353.846153846154,85
3361.5384615384614,95
3369.2307692307695,109
3376.923076923077,116
3384.6153846153848,121
3392.3076923076924,130
3400.0,147
3407.6923076923076,163
3415.3846153846157,159
3423.0769230769233,133
3430.769230769231,133
3438.4615384615386,168
3446.153846153846,182
3453.846153846154,178
3461.5384615384614,185
3469.2307692307695,178
3476.923076923077,166
3484.6153846153848,182
3492.3076923076924,218
3500.0,237
3507.6923076923076,230
3515.3846153846157,216
3523.0769230769233,211
3530.769230769231,192
3538.4615384615386,173
3546.153846153846,175
3553.846153846154,175
3561.5384615384614,168
3569.2307692307695,161
3576.923076923077,156
3584.6153846153848,156
3592.3076923076924,154
3600.0,142
3607.6923076923076,135
3615.3846153846157,137
3623.0769230769233,133
3630.769230769231,111
3638.4615384615386,47
3646.153846153846,-95
3653.846153846154,-154
3661.5384615384614,123
3669.2307692307695,781
3676.923076923077,1668
3684.6153846153848,2034
3692.3076923076924,1131
3700.0,-90
3707.6923076923076,-335
3715.3846153846157,-102
3723.0769230769233,-161
3730.769230769231,-240
3738.4615384615386,-159
3746.153846153846,-135
3753.846153846154,-149
3761.5384615384614,-118
3769.2307692307695,-109
3776.923076923077,-128
3784.6153846153848,-111
3792.3076923076924,-76
3800.0,-73
3807.6923076923076,-73
3815.3846153846157,-59
3823.0769230769233,-47
3830.769230769231,-49
3838.4615384615386,-42
3846.153846153846,-23
3853.846153846154,-16
3861.5384615384614,-9
3869.2307692307695,9
3876.923076923077,23
3884.6153846153848,40
3892.3076923076924,54
3900.0,64
3907.6923076923076,76
3915.3846153846157,76
3923.0769230769233,66
3930.769230769231,47
3938.4615384615386,9
3946.153846153846,-40
3953.846153846154,-80
3961.5384615384614,-111
3969.2307692307695,-130
3976.923076923077,-137
3984.6153846153848,-149
3992.3076923076924,-156
4000.0,-163
4007.6923076923076,-182
4015.3846153846157,-185
4023.0769230769233,-144
4030.769230769231,-135
4038.4615384615386,-147
4046.153846153846,-135
4053.846153846154,-128
4061.5384615384614,-130
4069.2307692307695,-123
4076.923076923077,-121
4084.6153846153848,-123
4092.3076923076924,-121
4100.0,-125
4107.692307692308,-125
4115.384615384615,-121
4123.076923076923,-123
4130.7692307692305,-130
4138.461538461539,-130
4146.153846153847,-128
4153.846153846154,-130
4161.538461538462,-128
4169.2307692307695,-128
4176.923076923077,-135
4184.615384615385,-137
4192.307692307692,-140
4200.0,-140
4207.692307692308,-142
4215.384615384615,-152
4223.076923076923,-149
4230.7692307692305,-125
4238.461538461539,-95
4246.153846153847,-85
4253.846153846154,-99
4261.538461538462,-116
4269.2307692307695,-125
4276.923076923077,-152
4284.615384615385,-175
4292.307692307692,-166
4300.0,-142
4307.692307692308,-147
4315.384615384615,-166
4323.076923076923,-163
4330.7692307692305,-159
4338.461538461539,-154
4346.153846153847,-152
4353.846153846154,-156
4361.538461538462,-166
4369.2307692307695,-171
4376.923076923077,-223
4384.615384615385,-356
4392.307692307692,-420
4400.0,-185
4407.692307692308,420
4415.384615384615,1347
4423.076923076923,1948
4430.7692307692305,1299
4438.461538461539,-16
4446.153846153847,-563
4453.846153846154,-420
4461.538461538462,-415
4469.2307692307695,-484
4476.923076923077,-415
4484.615384615385,-373
4492.307692307692,-389
4500.0,-365
4507.692307692308,-325
4515.384615384615,-308
4523.076923076923,-297
4530.7692307692305,-280
4538.461538461539,-282
4546.153846153847,-306
4553.846153846154,-308
4561.538461538462,-259
4569.2307692307695,-230
4576.923076923077,-235
4584.615384615385,-220
4592.307692307692,-209
4600.0,-194
4607.692307692308,-168
4615.384615384615,-144
4623.076923076923,-128
4630.7692307692305,-114
4638.461538461539,-109
4646.153846153847,-90
4653.846153846154,-71
4661.538461538462,-68
4669.2307692307695,-87
4676.923076923077,-125
4684.615384615385,-173
4692.307692307692,-199
4700.0,-216
4707.692307692308,-237
4715.384615384615,-254
4723.076923076923,-263
4730.7692307692305,-268
4738.461538461539,-259
4746.153846153847,-244
4753.846153846154,-240
4761.538461538462,-237
4769.2307692307695,-237
4776.923076923077,-240
4784.615384615385,-230
4792.307692307692,-237
4800.0,-249
4807.692307692308,-230
4815.384615384615,-225
4823.076923076923,-235
4830.7692307692305,-223
4838.461538461539,-213
4846.153846153847,-216
4853.846153846154,-218
4861.538461538462,-223
4869.2307692307695,-225
4876.923076923077,-220
4884.615384615385,-213
4892.307692307692,-216
4900.0,-216
4907.692307692308,-223
4915.384615384615,-230
4923.076923076923,-218
4930.7692307692305,-211
4938.461538461539,-216
4946.153846153847,-225
4953.846153846154,-244
4961.538461538462,-249
4969.2307692307695,-220
4976.923076923077,-182
4984.615384615385,-166
4992.307692307692,-175
5000.0,-194
5007.692307692308,-201
5015.384615384615,-206
5023.076923076923,-218
5030.7692307692305,-223
5038.461538461539,-218
5046.153846153847,-223
5053.846153846154,-230
5061.538461538462,-225
5069.2307692307695,-220
5076.923076923077,-230
5084.615384615385,-232
5092.307692307692,-232
5100.0,-235
5107.692307692308,-228
5115.384615384615,-237
5123.076923076923,-320
5130.7692307692305,-489
5138.461538461539,-515
5146.153846153847,-161
5153.846153846154,558
5161.538461538462,1497
5169.2307692307695,1865
5176.923076923077,929
5184.615384615385,-330
5192.307692307692,-643
5200.0,-453
5207.692307692308,-494
5215.384615384615,-553
5223.076923076923,-475
5230.7692307692305,-439
5238.461538461539,-430
5246.153846153847,-394
5253.846153846154,-382
5261.538461538462,-389
5269.2307692307695,-382
5276.923076923077,-380
5284.615384615385,-394
5292.307692307692,-437
5300.0,-515
5307.692307692308,-586
5315.384615384615,-622
5323.076923076923,-646
5330.7692307692305,-674
5338.461538461539,-696
5346.153846153847,-710
5353.846153846154,-727
5361.538461538462,-722
5369.2307692307695,-708
5376.923076923077,-701
5384.615384615385,-689
5392.307692307692,-670
5400.0,-670
5407.692307692308,-679
5415.384615384615,-696
5423.076923076923,-729
5430.7692307692305,-767
5438.461538461539,-793
5446.153846153847,-822
5453.846153846154,-843
5461.538461538462,-848
5469.2307692307695,-841
5476.923076923077,-829
5484.615384615385,-812
5492.307692307692,-807
5500.0,-793
5507.692307692308,-762
5515.384615384615,-746
5523.076923076923,-727
5530.7692307692305,-708
5538.461538461539,-705
5546.153846153847,-693
5553.846153846154,-674
5561.538461538462,-667
5569.2307692307695,-655
5576.923076923077,-643
5584.615384615385,-641
5592.307692307692,-629
5600.0,-617
5607.692307692308,-613
5615.384615384615,-605
5623.076923076923,-596
5630.7692307692305,-598
5638.461538461539,-591
5646.153846153847,-579
5653.846153846154,-575
5661.538461538462,-567
5669.2307692307695,-589
5676.923076923077,-620
5684.615384615385,-584
5692.307692307692,-548
5700.0,-556
5707.692307692308,-551
5715.384615384615,-541
5723.076923076923,-539
5730.7692307692305,-529
5738.461538461539,-532
5746.153846153847,-544
5753.846153846154,-539
5761.538461538462,-520
5769.2307692307695,-491
5776.923076923077,-463
5784.615384615385,-458
5792.307692307692,-477
5800.0,-503
5807.692307692308,-527
5815.384615384615,-522
5823.076923076923,-506
5830.7692307692305,-501
5838.461538461539,-503
5846.153846153847,-499
5853.846153846154,-499
5861.538461538462,-496
5869.2307692307695,-489
5876.923076923077,-491
5884.615384615385,-494
5892.307692307692,-491
5900.0,-491
5907.692307692308,-484
5915.384615384615,-496
5923.076923076923,-586
5930.7692307692305,-720
5938.461538461539,-686
5946.153846153847,-320
5953.846153846154,432
5961.538461538462,1371
5969.2307692307695,1561
5976.923076923077,477
5984.615384615385,-677
5992.307692307692,-850
6000.0,-672
6007.692307692308,-731
6015.384615384615,-767
6023.076923076923,-693
6030.7692307692305,-677
6038.461538461539,-672
6046.153846153847,-624
6053.846153846154,-601
6061.538461538462,-598
6069.2307692307695,-586
6076.923076923077,-572
6084.615384615385,-556
6092.307692307692,-537
6100.0,-527
6107.692307692308,-520
6115.384615384615,-513
6123.076923076923,-503
6130.7692307692305,-484
6138.461538461539,-475
6146.153846153847,-484
6153.846153846154,-494
6161.538461538462,-494
6169.2307692307695,-508
6176.923076923077,-522
6184.615384615385,-522
6192.307692307692,-539
6200.0,-579
6207.692307692308,-613
6215.384615384615,-658
6223.076923076923,-717
6230.7692307692305,-772
6238.461538461539,-829
6246.153846153847,-893
6253.846153846154,-964
6261.538461538462,-1012
6269.2307692307695,-993
6276.923076923077,-964
6284.615384615385,-974
6292.307692307692,-988
6300.0,-1000
6307.692307692308,-1007
6315.384615384615,-981
6323.076923076923,-952
6330.7692307692305,-952
6338.461538461539,-969
6346.153846153847,-976
6353.846153846154,-962
6361.538461538462,-938
6369.2307692307695,-936
6376.923076923077,-950
6384.615384615385,-952
6392.307692307692,-960
6400.0,-952
6407.692307692308,-929
6415.384615384615,-929
6423.076923076923,-929
6430.7692307692305,-924
6438.461538461539,-931
6446.153846153847,-919
6453.846153846154,-895
6461.538461538462,-891
6469.2307692307695,-883
6476.923076923077,-879
6484.615384615385,-876
6492.307692307692,-857
6500.0,-841
6507.692307692308,-836
6515.384615384615,-831
6523.076923076923,-831
6530.7692307692305,-829
6538.461538461539,-810
6546.153846153847,-786
6553.846153846154,-781
6561.538461538462,-777
6569.2307692307695,-772
6576.923076923077,-772
6584.615384615385,-760
6592.307692307692,-746
6600.0,-741
6607.692307692308,-739
6615.384615384615,-748
6623.076923076923,-755
6630.769230769231,-736
6638.461538461539,-712
6646.153846153847,-686
6653.846153846154,-670
6661.538461538462,-672
6669.2307692307695,-674
6676.923076923077,-665
6684.615384615385,-665
6692.307692307692,-681
6700.0,-691
6707.692307692308,-691
6715.384615384615,-689
6723.076923076923,-674
6730.769230769231,-667
6738.461538461539,-670
6746.153846153847,-672
6753.846153846154,-679
6761.538461538462,-674
6769.2307692307695,-653
6776.923076923077,-646
6784.615384615385,-646
6792.307692307692,-681
6800.0,-800
6807.692307692308,-938
6815.384615384615,-917
6823.076923076923,-603
6830.769230769231,71
6838.461538461539,1043
6846.153846153847,1539
6853.846153846154,712
6861.538461538462,-598
6869.2307692307695,-1019
6876.923076923077,-845
6884.615384615385,-869
6892.307692307692,-941
6900.0,-862
6907.692307692308,-812
6915.384615384615,-817
6923.076923076923,-786
6930.769230769231,-758
6938.461538461539,-753
6946.153846153847,-731
6953.846153846154,-703
6961.538461538462,-686
6969.2307692307695,-674
6976.923076923077,-667
6984.615384615385,-660
6992.307692307692,-639
7000.0,-615
7007.692307692308,-598
7015.384615384615,-589
7023.076923076923,-575
7030.769230769231,-556
7038.461538461539,-537
7046.153846153847,-510
7053.846153846154,-484
7061.538461538462,-470
7069.2307692307695,-461
7076.923076923077,-449
7084.615384615385,-437
7092.307692307692,-434
7100.0,-451
7107.692307692308,-491
7115.384615384615,-537
7123.076923076923,-563
7130.769230769231,-579
7138.461538461539,-591
7146.153846153847,-594
7153.846153846154,-601
7161.538461538462,-603
7169.2307692307695,-591
7176.923076923077,-586
7184.615384615385,-577
7192.307692307692,-563
7200.0,-563
7207.692307692308,-563
7215.384615384615,-553
7223.076923076923,-548
7230.769230769231,-544
7238.461538461539,-537
7246.153846153847,-537
7253.846153846154,-539
7261.538461538462,-537
7269.2307692307695,-532
7276.923076923077,-532
7284.615384615385,-529
7292.307692307692,-529
7300.0,-537
7307.692307692308,-551
7315.384615384615,-558
7323.076923076923,-532
7330.769230769231,-513
7338.461538461539,-525
7346.153846153847,-522
7353.846153846154,-510
7361.538461538462,-508
7369.2307692307695,-503
7376.923076923077,-518
7384.615384615385,-546
7392.307692307692,-534
7400.0,-501
7407.692307692308,-496
7415.384615384615,-494
7423.076923076923,-484
7430.769230769231,-487
7438.461538461539,-484
7446.153846153847,-472
7453.846153846154,-470
7461.538461538462,-468
7469.2307692307695,-461
7476.923076923077,-465
7484.615384615385,-458
7492.307692307692,-449
7500.0,-453
7507.692307692308,-451
7515.384615384615,-453
7523.076923076923,-456
7530.769230769231,-430
7538.461538461539,-399
7546.153846153847,-384
7553.846153846154,-377
7561.538461538462,-375
7569.2307692307695,-380
7576.923076923077,-382
7584.615384615385,-387
7592.307692307692,-399
7600.0,-392
7607.692307692308,-375
7615.384615384615,-373
7623.076923076923,-361
7630.769230769231,-349
7638.461538461539,-349
7646.153846153847,-339
7653.846153846154,-323
7661.538461538462,-311
7669.2307692307695,-301
7676.923076923077,-299
7684.615384615385,-304
7692.307692307692,-356
7700.0,-491
7707.692307692308,-529
7715.384615384615,-247
7723.076923076923,415
7730.769230769231,1385
7738.461538461539,1910
7746.153846153847,1109
7753.846153846154,-220
7761.538461538462,-658
7769.2307692307695,-456
7776.923076923077,-463
7784.615384615385,-539
7792.307692307692,-463
7800.0,-420
7807.692307692308,-422
7815.384615384615,-401
7823.076923076923,-384
7830.769230769231,-356
7838.461538461539,-318
7846.153846153847,-294
7853.846153846154,-278
7861.538461538462,-263
7869.2307692307695,-249
7876.923076923077,-237
7884.615384615385,-220
7892.307692307692,-199
7900.0,-182
7907.692307692308,-168
7915.384615384615,-159
7923.076923076923,-156
7930.769230769231,-140
7938.461538461539,-104
7946.153846153847,-73
7953.846153846154,-59
7961.538461538462,-45
7969.2307692307695,-30
7976.923076923077,-19
7984.615384615385,-14
7992.307692307692,-33
8000.0,-71
8007.692307692308,-109
8015.384615384615,-130
8023.076923076923,-144
8030.769230769231,-161
8038.461538461539,-168
8046.153846153847,-166
8053.846153846154,-166
8061.538461538462,-159
8069.2307692307695,-144
8076.923076923077,-133
8084.615384615385,-118
8092.307692307692,-109
8100.0,-114
8107.692307692308,-109
8115.384615384615,-97
8123.076923076923,-92
8130.769230769231,-85
8138.461538461539,-80
8146.153846153847,-80
8153.846153846154,-83
8161.538461538462,-78
8169.2307692307695,-66
8176.923076923077,-66
8184.615384615385,-71
8192.307692307693,-73
8200.0,-68
8207.692307692309,-61
8215.384615384615,-57
8223.076923076924,-54
8230.76923076923,-57
8238.461538461539,-68
8246.153846153846,-68
8253.846153846154,-54
8261.538461538461,-47
8269.23076923077,-54
8276.923076923078,-68
8284.615384615385,-73
8292.307692307693,-64
8300.0,-59
8307.692307692309,-61
8315.384615384615,-73
8323.076923076924,-106
8330.76923076923,-130
8338.461538461539,-114
8346.153846153846,-78
8353.846153846154,-49
8361.538461538461,-40
8369.23076923077,-47
8376.923076923078,-61
8384.615384615385,-73
8392.307692307693,-85
8400.0,-97
8407.692307692309,-95
8415.384615384615,-97
8423.076923076924,-111
8430.76923076923,-106
8438.461538461539,-102
8446.153846153846,-106
8453.846153846154,-114
8461.538461538461,-121
8469.23076923077,-125
8476.923076923078,-118
8484.615384615385,-116
8492.307692307693,-147
8500.0,-268
8507.692307692309,-430
8515.384615384615,-358
8523.076923076924,135
8530.76923076923,993
8538.461538461539,1817
8546.153846153846,1658
8553.846153846154,394
8561.538461538461,-503
8569.23076923077,-418
8576.923076923078,-289
8584.615384615385,-418
8592.307692307693,-401
8600.0,-330
8607.692307692309,-342
8615.384615384615,-323
8623.076923076924,-275
8630.76923076923,-266
8638.461538461539,-263
8646.153846153846,-251
8653.846153846154,-240
8661.538461538461,-225
8669.23076923077,-209
8676.923076923078,-199
8684.615384615385,-199
8692.307692307693,-197
8700.0,-185
8707.692307692309,-166
8715.384615384615,-152
8723.076923076924,-137
8730.76923076923,-121
8738.461538461539,-109
8746.153846153846,-92
8753.846153846154,-71
8761.538461538461,-54
8769.23076923077,-45
8776.923076923078,-47
8784.615384615385,-59
8792.307692307693,-78
8800.0,-114
8807.692307692309,-152
8815.384615384615,-180
8823.076923076924,-218
8830.76923076923,-254
8838.461538461539,-256
8846.153846153846,-240
8853.846153846154,-235
8861.538461538461,-235
8869.23076923077,-232
8876.923076923078,-232
8884.615384615385,-223
8892.307692307693,-209
8900.0,-204
8907.692307692309,-204
8915.384615384615,-206
8923.076923076924,-204
8930.76923076923,-199
8938.461538461539,-192
8946.153846153846,-185
8953.846153846154,-190
8961.538461538461,-199
8969.23076923077,-197
8976.923076923078,-194
8984.615384615385,-190
8992.307692307693,-187
9000.0,-194
9007.692307692309,-199
9015.384615384615,-194
9023.076923076924,-192
9030.76923076923,-190
9038.461538461539,-192
9046.153846153846,-216
9053.846153846154,-232
9061.538461538461,-211
9069.23076923077,-192
9076.923076923078,-197
9084.615384615385,-194
9092.307692307693,-192
9100.0,-199
9107.692307692309,-201
9115.384615384615,-204
9123.076923076924,-204
9130.76923076923,-190
9138.461538461539,-163
9146.153846153846,-142
9153.846153846154,-144
9161.538461538461,-156
9169.23076923077,-156
9176.923076923078,-171
9184.615384615385,-199
9192.307692307693,-201
9200.0,-190
9207.692307692309,-192
9215.384615384615,-194
9223.076923076924,-197
9230.76923076923,-201
9238.461538461539,-201
9246.153846153846,-201
9253.846153846154,-204
9261.538461538461,-201
9269.23076923077,-199
9276.923076923078,-213
9284.615384615385,-266
9292.307692307693,-399
9300.0,-472
9307.692307692309,-242
9315.384615384615,358
9323.076923076924,1297
9330.76923076923,1981
9338.461538461539,1390
9346.153846153846,9
9353.846153846154,-617
9361.538461538461,-472
9369.23076923077,-453
9376.923076923078,-537
9384.615384615385,-475
9392.307692307693,-425
9400.0,-434
9407.692307692309,-411
9415.384615384615,-373
9423.076923076924,-358
9430.76923076923,-344
9438.461538461539,-330
9446.153846153846,-318
9453.846153846154,-311
9461.538461538461,-301
9469.23076923077,-280
9476.923076923078,-270
9484.615384615385,-270
9492.307692307693,-254
9500.0,-242
9507.692307692309,-230
9515.384615384615,-206
9523.076923076924,-187
9530.76923076923,-171
9538.461538461539,-154
9546.153846153846,-140
9553.846153846154,-121
9561.538461538461,-106
9569.23076923077,-106
9576.923076923078,-125
9584.615384615385,-173
9592.307692307693,-230
9600.0,-247
9607.692307692309,-247
9615.384615384615,-278
9623.076923076924,-304
9630.76923076923,-299
9638.461538461539,-299
9646.153846153846,-299
9653.846153846154,-287
9661.538461538461,-287
9669.23076923077,-285
9676.923076923078,-275
9684.615384615385,-266
9692.307692307693,-256
9700.0,-249
9707.692307692309,-251
9715.384615384615,-254
9723.076923076924,-256
9730.76923076923,-251
9738.461538461539,-244
9746.153846153846,-242
9753.846153846154,-244
9761.538461538461,-247
9769.23076923077,-249
9776.923076923078,-249
9784.615384615385,-242
9792.307692307693,-237
9800.0,-240
9807.692307692309,-247
9815.384615384615,-251
9823.076923076924,-247
9830.76923076923,-244
9838.461538461539,-256
9846.153846153846,-268
9853.846153846154,-259
9861.538461538461,-247
9869.23076923077,-244
9876.923076923078,-240
9884.615384615385,-242
9892.307692307693,-249
9900.0,-254
9907.692307692309,-242
9915.384615384615,-209
9923.076923076924,-182
9930.76923076923,-175
9938.461538461539,-187
9946.153846153846,-199
9953.846153846154,-209
9961.538461538461,-223
9969.23076923077,-232
9976.923076923078,-228
9984.615384615385,-225
9992.307692307693,-232
10000.0,-235
10007.692307692309,-228
10015.384615384615,-228
10023.076923076924,-232
10030.76923076923,-235
10038.461538461539,-244
10046.153846153846,-240
10053.846153846154,-228
10061.538461538461,-244
10069.23076923077,-332
10076.923076923078,-482
10084.615384615385,-468
10092.307692307693,-92
10100.0,665
10107.692307692309,1613
10115.384615384615,1858
10123.076923076924,800
10130.76923076923,-418
10138.461538461539,-648
10146.153846153846,-453
10153.846153846154,-508
10161.538461538461,-556
10169.23076923077,-480
10176.923076923078,-463
10184.615384615385,-458
10192.307692307693,-411
10200.0,-389
10207.692307692309,-382
10215.384615384615,-368
10223.076923076924,-361
10230.76923076923,-346
10238.461538461539,-327
10246.153846153846,-313
10253.846153846154,-301
10261.538461538461,-301
10269.23076923077,-299
10276.923076923078,-280
10284.615384615385,-261
10292.307692307693,-247
10300.0,-232
10307.692307692309,-225
10315.384615384615,-211
10323.076923076924,-187
10330.76923076923,-163
10338.461538461539,-156
10346.153846153846,-171
10353.846153846154,-187
10361.538461538461,-194
10369.23076923077,-211
10376.923076923078,-247
10384.615384615385,-280
10392.307692307693,-306
10400.0,-335
10407.692307692309,-349
10415.384615384615,-342
10423.076923076924,-337
10430.76923076923,-337
10438.461538461539,-339
10446.153846153846,-344
10453.846153846154,-335
10461.538461538461,-318
10469.23076923077,-313
10476.923076923078,-313
10484.615384615385,-313
10492.307692307693,-316
10500.0,-318
10507.692307692309,-308
10515.384615384615,-304
10523.076923076924,-306
10530.76923076923,-308
10538.461538461539,-313
10546.153846153846,-313
10553.846153846154,-301
10561.538461538461,-297
10569.23076923077,-299
10576.923076923078,-304
10584.615384615385,-306
10592.307692307693,-301
10600.0,-292
10607.692307692309,-287
10615.384615384615,-289
10623.076923076924,-292
10630.76923076923,-292
10638.461538461539,-289
10646.153846153846,-282
10653.846153846154,-280
10661.538461538461,-285
10669.23076923077,-289
10676.923076923078,-299
10684.615384615385,-304
10692.307692307693,-297
10700.0,-282
10707.692307692309,-259
10715.384615384615,-235
10723.076923076924,-237
10730.76923076923,-244
10738.461538461539,-247
10746.153846153846,-256
10753.846153846154,-294
10761.538461538461,-327
10769.23076923077,-308
10776.923076923078,-280
10784.615384615385,-280
10792.307692307693,-285
10800.0,-285
10807.692307692309,-289
10815.384615384615,-289
10823.076923076924,-285
10830.76923076923,-278
10838.461538461539,-275
10846.153846153846,-280
10853.846153846154,-332
10861.538461538461,-465
10869.23076923077,-563
10876.923076923078,-411
10884.615384615385,78
10892.307692307693,955
10900.0,1798
10907.692307692309,1563
10915.384615384615,259
10923.076923076924,-622
10930.76923076923,-575
10938.461538461539,-487
10946.153846153846,-589
10953.846153846154,-558
10961.538461538461,-489
10969.23076923077,-489
10976.923076923078,-480
10984.615384615385,-449
10992.307692307693,-430
11000.0,-415
11007.692307692309,-396
11015.384615384615,-380
11023.076923076924,-370
11030.76923076923,-361
11038.461538461539,-346
11046.153846153846,-337
11053.846153846154,-327
11061.538461538461,-313
11069.23076923077,-299
11076.923076923078,-289
11084.615384615385,-270
11092.307692307693,-249
11100.0,-235
11107.692307692309,-213
11115.384615384615,-197
11123.076923076924,-192
11130.76923076923,-175
11138.461538461539,-166
11146.153846153846,-178
11153.846153846154,-201
11161.538461538461,-237
11169.23076923077,-280
11176.923076923078,-308
11184.615384615385,-330
11192.307692307693,-349
11200.0,-358
11207.692307692309,-361
11215.384615384615,-363
11223.076923076924,-354
11230.76923076923,-346
11238.461538461539,-349
11246.153846153846,-342
11253.846153846154,-332
11261.538461538461,-327
11269.23076923077,-320
11276.923076923078,-320
11284.615384615385,-325
11292.307692307693,-327
11300.0,-346
11307.692307692309,-351
11315.384615384615,-318
11323.076923076924,-308
11330.76923076923,-318
11338.461538461539,-318
11346.153846153846,-316
11353.846153846154,-318
11361.538461538461,-327
11369.23076923077,-335
11376.923076923078,-318
11384.615384615385,-306
11392.307692307693,-308
11400.0,-301
11407.692307692309,-294
11415.384615384615,-297
11423.076923076924,-304
11430.76923076923,-301
11438.461538461539,-304
11446.153846153846,-306
11453.846153846154,-304
11461.538461538461,-297
11469.23076923077,-275
11476.923076923078,-247
11484.615384615385,-240
11492.307692307693,-249
11500.0,-249
11507.692307692309,-263
11515.384615384615,-289
11523.076923076924,-301
11530.76923076923,-294
11538.461538461539,-285
11546.153846153846,-285
11553.846153846154,-292
11561.538461538461,-301
11569.23076923077,-301
11576.923076923078,-299
11584.615384615385,-299
11592.307692307693,-297
11600.0,-299
11607.692307692309,-306
11615.384615384615,-308
11623.076923076924,-335
11630.76923076923,-441
11638.461538461539,-553
11646.153846153846,-434
11653.846153846154,57
11661.538461538461,933
11669.23076923077,1753
11676.923076923078,1489
11684.615384615385,190
11692.307692307693,-660
11700.0,-610
11707.692307692309,-520
11715.384615384615,-610
11723.076923076924,-579
11730.76923076923,-513
11738.461538461539,-522
11746.153846153846,-518
11753.846153846154,-475
11761.538461538461,-451
11769.23076923077,-437
11776.923076923078,-420
11784.615384615385,-413
11792.307692307693,-408
11800.0,-392
11807.692307692309,-373
11815.384615384615,-358
11823.076923076924,-346
11830.76923076923,-342
11838.461538461539,-358
11846.153846153846,-349
11853.846153846154,-294
11861.538461538461,-285
11869.23076923077,-323
11876.923076923078,-335
11884.615384615385,-316
11892.307692307693,-330
11900.0,-368
11907.692307692309,-389
11915.384615384615,-408
11923.076923076924,-470
11930.76923076923,-565
11938.461538461539,-639
11946.153846153846,-679
11953.846153846154,-722
11961.538461538461,-762
11969.23076923077,-800
11976.923076923078,-822
11984.615384615385,-815
11992.307692307693,-798
12000.0,-793
12007.692307692309,-791
12015.384615384615,-786
12023.076923076924,-779
12030.76923076923,-753
12038.461538461539,-731
12046.153846153846,-724
12053.846153846154,-712
12061.538461538461,-708
12069.23076923077,-705
12076.923076923078,-681
12084.615384615385,-660
12092.307692307693,-651
12100.0,-643
12107.692307692309,-641
12115.384615384615,-627
12123.076923076924,-601
12130.76923076923,-584
12138.461538461539,-582
12146.153846153846,-570
12153.846153846154,-560
12161.538461538461,-558
12169.23076923077,-541
12176.923076923078,-527
12184.615384615385,-525
12192.307692307693,-513
12200.0,-513
12207.692307692309,-513
12215.384615384615,-494
12223.076923076924,-491
12230.76923076923,-491
12238.461538461539,-482
12246.153846153846,-489
12253.846153846154,-491
12261.538461538461,-477
12269.23076923077,-475
12276.923076923078,-482
12284.615384615385,-489
12292.307692307693,-487
12300.0,-453
12307.692307692309,-413
12315.384615384615,-411
12323.076923076924,-430
12330.76923076923,-430
12338.461538461539,-446
12346.153846153846,-472
12353.846153846154,-472
12361.538461538461,-465
12369.23076923077,-477
12376.923076923078,-496
12384.615384615385,-491
12392.307692307693,-472
12400.0,-468
12407.692307692309,-468
12415.384615384615,-470
12423.076923076924,-496
12430.76923076923,-510
12438.461538461539,-482
12446.153846153846,-461
12453.846153846154,-475
12461.538461538461,-539
12469.23076923077,-677
12476.923076923078,-717
12484.615384615385,-434
12492.307692307693,220
12500.0,1150
12507.692307692309,1634
12515.384615384615,843
12523.076923076924,-444
12530.76923076923,-864
12538.461538461539,-684
12546.153846153846,-701
12553.846153846154,-779
12561.538461538461,-715
12569.23076923077,-679
12576.923076923078,-686
12584.615384615385,-651
12592.307692307693,-613
12600.0,-615
12607.692307692309,-608
12615.384615384615,-579
12623.076923076924,-567
12630.76923076923,-556
12638.461538461539,-539
12646.153846153846,-529
12653.846153846154,-522
12661.538461538461,-506
12669.23076923077,-487
12676.923076923078,-468
12684.615384615385,-449
12692.307692307693,-434
12700.0,-418
12707.692307692309,-396
12715.384615384615,-377
12723.076923076924,-358
12730.76923076923,-337
12738.461538461539,-325
12746.153846153846,-325
12753.846153846154,-327
12761.538461538461,-344
12769.23076923077,-375
12776.923076923078,-406
12784.615384615385,-434
12792.307692307693,-451
12800.0,-465
12807.692307692309,-480
12815.384615384615,-477
12823.076923076924,-465
12830.76923076923,-463
12838.461538461539,-456
12846.153846153846,-446
12853.846153846154,-437
12861.538461538461,-425
12869.23076923077,-420
12876.923076923078,-434
12884.615384615385,-444
12892.307692307693,-413
12900.0,-396
12907.692307692309,-401
12915.384615384615,-396
12923.076923076924,-394
12930.76923076923,-387
12938.461538461539,-382
12946.153846153846,-387
12953.846153846154,-384
12961.538461538461,-396
12969.23076923077,-420
12976.923076923078,-396
12984.615384615385,-370
12992.307692307693,-375
13000.0,-377
13007.692307692309,-370
13015.384615384615,-365
13023.076923076924,-358
13030.76923076923,-356
13038.461538461539,-358
13046.153846153846,-358
13053.846153846154,-361
13061.538461538461,-363
13069.23076923077,-349
13076.923076923078,-344
13084.615384615385,-354
13092.307692307693,-346
13100.0,-342
13107.692307692309,-349
13115.384615384615,-344
13123.076923076924,-339
13130.76923076923,-342
13138.461538461539,-344
13146.153846153846,-344
13153.846153846154,-339
13161.538461538463,-332
13169.23076923077,-332
13176.923076923078,-339
13184.615384615385,-339
13192.307692307693,-337
13200.0,-337
13207.692307692309,-332
13215.384615384615,-330
13223.076923076924,-337
13230.76923076923,-344
13238.461538461539,-349
13246.153846153846,-346
13253.846153846154,-320
13261.538461538463,-297
13269.23076923077,-294
13276.923076923078,-294
13284.615384615385,-299
13292.307692307693,-306
13300.0,-316
13307.692307692309,-337
13315.384615384615,-344
13323.076923076924,-337
13330.76923076923,-335
13338.461538461539,-327
13346.153846153846,-325
13353.846153846154,-337
13361.538461538463,-344
13369.23076923077,-344
13376.923076923078,-349
13384.615384615385,-361
13392.307692307693,-349
13400.0,-332
13407.692307692309,-358
13415.384615384615,-458
13423.076923076924,-589
13430.76923076923,-527
13438.461538461539,-111
13446.153846153846,679
13453.846153846154,1592
13461.538461538463,1658
13469.23076923077,470
13476.923076923078,-613
13484.615384615385,-658
13492.307692307693,-484
13500.0,-620
13507.692307692309,-658
13515.384615384615,-544
13523.076923076924,-518
13530.76923076923,-522
13538.461538461539,-482
13546.153846153846,-468
13553.846153846154,-461
13561.538461538463,-427
13569.23076923077,-408
13576.923076923078,-401
13584.615384615385,-394
13592.307692307693,-384
13600.0,-373
13607.692307692309,-351
13615.384615384615,-337
13623.076923076924,-330
13630.76923076923,-320
13638.461538461539,-313
13646.153846153846,-301
13653.846153846154,-273
13661.538461538463,-249
13669.23076923077,-240
13676.923076923078,-230
13684.615384615385,-220
13692.307692307693,-209
13700.0,-197
13707.692307692309,-201
13715.384615384615,-223
13723.076923076924,-266
13730.76923076923,-306
13738.461538461539,-325
13746.153846153846,-339
13753.846153846154,-351
13761.538461538463,-361
13769.23076923077,-373
13776.923076923078,-377
13784.615384615385,-363
13792.307692307693,-354
13800.0,-354
13807.692307692309,-344
13815.384615384615,-337
13823.076923076924,-342
13830.76923076923,-330
13838.461538461539,-318
13846.153846153846,-320
13853.846153846154,-323
13861.538461538463,-327
13869.23076923077,-330
13876.923076923078,-323
13884.615384615385,-337
13892.307692307693,-339
13900.0,-316
13907.692307692309,-313
13915.384615384615,-330
13923.076923076924,-320
13930.76923076923,-304
13938.461538461539,-301
13946.153846153846,-301
13953.846153846154,-304
13961.538461538463,-311
13969.23076923077,-301
13976.923076923078,-292
13984.615384615385,-297
13992.307692307693,-301
14000.0,-306
14007.692307692309,-306
14015.384615384615,-289
14023.076923076924,-285
14030.76923076923,-292
14038.461538461539,-294
14046.153846153846,-299
14053.846153846154,-299
14061.538461538463,-292
14069.23076923077,-289
14076.923076923078,-285
14084.615384615385,-285
14092.307692307693,-294
14100.0,-297
14107.692307692309,-292
14115.384615384615,-292
14123.076923076924,-301
14130.76923076923,-330
14138.461538461539,-351
14146.153846153846,-306
14153.846153846154,-247
14161.538461538463,-247
14169.23076923077,-261
14176.923076923078,-259
14184.615384615385,-273
14192.307692307693,-289
14200.0,-297
14207.692307692309,-297
14215.384615384615,-289
14223.076923076924,-294
14230.76923076923,-301
14238.461538461539,-299
14246.153846153846,-297
14253.846153846154,-299
14261.538461538463,-299
14269.23076923077,-299
14276.923076923078,-304
14284.615384615385,-308
14292.307692307693,-306
14300.0,-323
14307.692307692309,-422
14315.384615384615,-558
14323.076923076924,-491
14330.76923076923,-73
14338.461538461539,722
14346.153846153846,1630
14353.846153846154,1703
14361.538461538463,544
14369.23076923077,-553
14376.923076923078,-667
14384.615384615385,-525
14392.307692307693,-617
14400.0,-622
14407.692307692309,-532
14415.384615384615,-525
14423.076923076924,-525
14430.76923076923,-482
14438.461538461539,-458
14446.153846153846,-456
14453.846153846154,-437
14461.538461538463,-418
14469.23076923077,-408
14476.923076923078,-394
14484.615384615385,-382
14492.307692307693,-377
14500.0,-368
14507.692307692309,-356
14515.384615384615,-346
14523.076923076924,-332
14530.76923076923,-313
14538.461538461539,-299
14546.153846153846,-287
14553.846153846154,-270
14561.538461538463,-261
14569.23076923077,-249
14576.923076923078,-237
14584.615384615385,-232
14592.307692307693,-235
14600.0,-249
14607.692307692309,-280
14615.384615384615,-316
14623.076923076924,-351
14630.76923076923,-387
14638.461538461539,-406
14646.153846153846,-422
14653.846153846154,-437
14661.538461538463,-437
14669.23076923077,-439
14676.923076923078,-458
14684.615384615385,-456
14692.307692307693,-425
14700.0,-413
14707.692307692309,-413
14715.384615384615,-415
14723.076923076924,-434
14730.76923076923,-422
14738.461538461539,-394
14746.153846153846,-394
14753.846153846154,-392
14761.538461538463,-384
14769.23076923077,-392
14776.923076923078,-389
14784.615384615385,-380
14792.307692307693,-384
14800.0,-384
14807.692307692309,-380
14815.384615384615,-377
14823.076923076924,-377
14830.76923076923,-375
14838.461538461539,-377
14846.153846153846,-377
14853.846153846154,-377
14861.538461538463,-380
14869.23076923077,-370
14876.923076923078,-370
14884.615384615385,-394
14892.307692307693,-408
14900.0,-392
14907.692307692309,-375
14915.384615384615,-370
14923.076923076924,-373
14930.76923076923,-373
14938.461538461539,-368
14946.153846153846,-368
14953.846153846154,-365
14961.538461538463,-358
14969.23076923077,-356
14976.923076923078,-354
14984.615384615385,-354
14992.307692307693,-356
15000.0,-356
15007.692307692309,-349
15015.384615384615,-346
15023.076923076924,-356
15030.76923076923,-365
15038.461538461539,-365
15046.153846153846,-351
15053.846153846154,-316
15061.538461538463,-294
15069.23076923077,-289
15076.923076923078,-287
15084.615384615385,-299
15092.307692307693,-306
15100.0,-306
15107.692307692309,-320
15115.384615384615,-327
15123.076923076924,-320
15130.76923076923,-320
15138.461538461539,-313
15146.153846153846,-299
15153.846153846154,-297
15161.538461538463,-301
15169.23076923077,-297
15176.923076923078,-285
15184.615384615385,-282
15192.307692307693,-280
15200.0,-280
15207.692307692309,-342
15215.384615384615,-496
15223.076923076924,-544
15230.76923076923,-244
15238.461538461539,418
15246.153846153846,1392
15253.846153846154,2029
15261.538461538463,1354
15269.23076923077,-21
15276.923076923078,-572
15284.615384615385,-392
15292.307692307693,-377
15300.0,-470
15307.692307692309,-399
15315.384615384615,-330
15323.076923076924,-323
15330.76923076923,-285
15338.461538461539,-244
15346.153846153846,-235
15353.846153846154,-211
15361.538461538463,-168
15369.23076923077,-149
15376.923076923078,-135
15384.615384615385,-109
15392.307692307693,-104
15400.0,-109
15407.692307692309,-80
15415.384615384615,-40
15423.076923076924,-26
15430.76923076923,-14
15438.461538461539,2
15446.153846153846,16
15453.846153846154,40
15461.538461538463,73
15469.23076923077,87
15476.923076923078,95
15484.615384615385,102
15492.307692307693,111
15500.0,109
15507.692307692309,85
15515.384615384615,49
15523.076923076924,7
15530.76923076923,-33
15538.461538461539,-59
15546.153846153846,-73
15553.846153846154,-83
15561.538461538463,-92
15569.23076923077,-97
15576.923076923078,-97
15584.615384615385,-92
15592.307692307693,-83
15600.0,-78
15607.692307692309,-76
15615.384615384615,-78
15623.076923076924,-80
15630.76923076923,-78
15638.461538461539,-71
15646.153846153846,-71
15653.846153846154,-76
15661.538461538463,-80
15669.23076923077,-80
15676.923076923078,-71
15684.615384615385,-66
15692.307692307693,-73
15700.0,-73
15707.692307692309,-78
15715.384615384615,-80
15723.076923076924,-80
15730.76923076923,-78
15738.461538461539,-73
15746.153846153846,-73
15753.846153846154,-83
15761.538461538463,-90
15769.23076923077,-87
15776.923076923078,-83
15784.615384615385,-83
15792.307692307693,-92
15800.0,-116
15807.692307692309,-128
15815.384615384615,-97
15823.076923076924,-78
15830.76923076923,-90
15838.461538461539,-99
15846.153846153846,-116
15853.846153846154,-123
15861.538461538463,-102
15869.23076923077,-97
15876.923076923078,-116
15884.615384615385,-116
15892.307692307693,-92
15900.0,-73
15907.692307692309,-76
15915.384615384615,-64
15923.076923076924,-45
15930.76923076923,-64
15938.461538461539,-92
15946.153846153846,-99
15953.846153846154,-90
15961.538461538463,-85
15969.23076923077,-92
15976.923076923078,-95
15984.615384615385,-102
15992.307692307693,-104
16000.0,-99
16007.692307692309,-97
16015.384615384615,-97
16023.076923076924,-99
16030.76923076923,-106
16038.461538461539,-114
16046.153846153846,-156
16053.846153846154,-285
16061.538461538463,-387
16069.23076923077,-209
16076.923076923078,365
16084.615384615385,1328
16092.307692307693,2107
16100.0,1644
16107.692307692309,263
16115.384615384615,-482
16123.076923076924,-384
16130.76923076923,-344
16138.461538461539,-439
16146.153846153846,-392
16153.846153846154,-339
16161.538461538463,-354
16169.23076923077,-337
16176.923076923078,-297
16184.615384615385,-278
16192.307692307693,-261
16200.0,-247
16207.692307692309,-247
16215.384615384615,-235
16223.076923076924,-216
16230.76923076923,-204
16238.461538461539,-192
16246.153846153846,-185
16253.846153846154,-175
16261.538461538463,-161
16269.23076923077,-147
16276.923076923078,-130
16284.615384615385,-109
16292.307692307693,-92
16300.0,-78
16307.692307692309,-66
16315.384615384615,-52
16323.076923076924,-38
16330.76923076923,-33
16338.461538461539,-59
16346.153846153846,-99
16353.846153846154,-121
16361.538461538463,-142
16369.23076923077,-178
16376.923076923078,-199
16384.615384615387,-213
16392.30769230769,-225
16400.0,-232
16407.69230769231,-249
16415.384615384617,-247
16423.076923076922,-223
16430.76923076923,-218
16438.46153846154,-218
16446.153846153848,-204
16453.846153846156,-197
16461.53846153846,-192
16469.23076923077,-187
16476.923076923078,-187
16484.615384615387,-190
16492.30769230769,-187
16500.0,-180
16507.69230769231,-178
16515.384615384617,-180
16523.076923076922,-182
16530.76923076923,-180
16538.46153846154,-173
16546.153846153848,-175
16553.846153846156,-178
16561.53846153846,-175
16569.23076923077,-175
16576.923076923078,-173
16584.615384615387,-171
16592.30769230769,-175
16600.0,-175
16607.69230769231,-175
16615.384615384617,-175
16623.076923076922,-171
16630.76923076923,-173
16638.46153846154,-180
16646.153846153848,-178
16653.846153846156,-175
16661.53846153846,-178
16669.23076923077,-180
16676.923076923078,-178
16684.615384615387,-180
16692.30769230769,-178
16700.0,-175
16707.69230769231,-178
16715.384615384617,-175
16723.076923076922,-173
16730.76923076923,-180
16738.46153846154,-185
16746.153846153848,-199
16753.846153846156,-206
16761.53846153846,-187
16769.23076923077,-156
16776.923076923078,-142
16784.615384615387,-142
16792.30769230769,-137
16800.0,-142
16807.69230769231,-159
16815.384615384617,-178
16823.076923076922,-187
16830.76923076923,-185
16838.46153846154,-180
16846.153846153848,-182
16853.846153846156,-182
16861.53846153846,-185
16869.23076923077,-194
16876.923076923078,-209
16884.615384615387,-220
16892.30769230769,-211
16900.0,-190
16907.69230769231,-201
16915.384615384617,-251
16923.076923076922,-377
16930.76923076923,-503
16938.46153846154,-389
16946.153846153848,71
16953.846153846156,910
16961.53846153846,1863
16969.23076923077,1903
16976.923076923078,672
16984.615384615387,-434
16992.30769230769,-534
17000.0,-399
17007.69230769231,-494
17015.384615384617,-503
17023.076923076922,-425
17030.76923076923,-415
17038.46153846154,-406
17046.153846153848,-373
17053.846153846156,-358
17061.53846153846,-346
17069.23076923077,-323
17076.923076923078,-304
17084.615384615387,-294
17092.30769230769,-282
17100.0,-273
17107.69230769231,-266
17115.384615384617,-247
17123.076923076922,-228
17130.76923076923,-218
17138.46153846154,-206
17146.153846153848,-194
17153.846153846156,-178
17161.53846153846,-156
17169.23076923077,-133
17176.923076923078,-114
17184.615384615387,-104
17192.30769230769,-97
17200.0,-87
17207.69230769231,-85
17215.384615384617,-95
17223.076923076922,-128
17230.76923076923,-173
17238.46153846154,-213
17246.153846153848,-242
17253.846153846156,-261
17261.53846153846,-270
17269.23076923077,-278
17276.923076923078,-285
17284.615384615387,-294
17292.30769230769,-287
17300.0,-273
17307.69230769231,-268
17315.384615384617,-266
17323.076923076922,-261
17330.76923076923,-261
17338.46153846154,-256
17346.153846153848,-247
17353.846153846156,-244
17361.53846153846,-242
17369.23076923077,-247
17376.923076923078,-254
17384.615384615387,-249
17392.30769230769,-237
17400.0,-232
17407.69230769231,-235
17415.384615384617,-249
17423.076923076922,-261
17430.76923076923,-254
17438.46153846154,-232
17446.153846153848,-228
17453.846153846156,-230
17461.53846153846,-244
17469.23076923077,-268
17476.923076923078,-251
17484.615384615387,-218
17492.30769230769,-223
17500.0,-230
17507.69230769231,-225
17515.384615384617,-230
17523.076923076922,-223
17530.76923076923,-213
17538.46153846154,-213
17546.153846153848,-213
17553.846153846156,-216
17561.53846153846,-218
17569.23076923077,-211
17576.923076923078,-201
17584.615384615387,-206
17592.30769230769,-206
17600.0,-209
17607.69230769231,-216
17615.384615384617,-204
17623.076923076922,-190
17630.76923076923,-199
17638.46153846154,-204
17646.153846153848,-201
17653.846153846156,-206
17661.53846153846,-206
17669.23076923077,-204
17676.923076923078,-211
17684.615384615387,-218
17692.30769230769,-223
17700.0,-197
17707.69230769231,-159
17715.384615384617,-149
17723.076923076922,-152
17730.76923076923,-156
17738.46153846154,-173
17746.153846153848,-190
17753.846153846156,-199
17761.53846153846,-199
17769.23076923077,-187
17776.923076923078,-180
17784.615384615387,-199
17792.30769230769,-209
17800.0,-194
17807.69230769231,-190
17815.384615384617,-192
17823.076923076922,-194
17830.76923076923,-204
17838.46153846154,-204
17846.153846153848,-194
17853.846153846156,-216
17861.53846153846,-335
17869.23076923077,-465
17876.923076923078,-356
17884.615384615387,125
17892.30769230769,1000
17900.0,1922
17907.69230769231,1822
17915.384615384617,515
17923.076923076922,-525
17930.76923076923,-548
17938.46153846154,-392
17946.153846153848,-475
17953.846153846156,-477
17961.53846153846,-403
17969.23076923077,-403
17976.923076923078,-394
17984.615384615387,-346
17992.30769230769,-318
18000.0,-301
18007.69230769231,-282
18015.384615384617,-266
18023.076923076922,-249
18030.76923076923,-216
18038.46153846154,-173
18046.153846153848,-185
18053.846153846156,-225
18061.53846153846,-204
18069.23076923077,-140
18076.923076923078,-104
18084.615384615387,-87
18092.30769230769,-59
18100.0,-33
18107.69230769231,-28
18115.384615384617,-19
18123.076923076922,7
18130.76923076923,28
18138.46153846154,33
18146.153846153848,28
18153.846153846156,11
18161.53846153846,-21
18169.23076923077,-57
18176.923076923078,-92
18184.615384615387,-133
18192.30769230769,-163
18200.0,-168
18207.69230769231,-175
18215.384615384617,-171
18223.076923076922,-159
18230.76923076923,-171
18238.46153846154,-175
18246.153846153848,-159
18253.846153846156,-156
18261.53846153846,-154
18269.23076923077,-147
18276.923076923078,-144
18284.615384615387,-135
18292.30769230769,-123
18300.0,-130
18307.69230769231,-142
18315.384615384617,-128
18323.076923076922,-116
18330.76923076923,-123
18338.46153846154,-128
18346.153846153848,-130
18353.846153846156,-133
18361.53846153846,-133
18369.23076923077,-125
18376.923076923078,-118
18384.615384615387,-118
18392.30769230769,-128
18400.0,-125
18407.69230769231,-130
18415.384615384617,-140
18423.076923076922,-135
18430.76923076923,-144
18438.46153846154,-144
18446.153846153848,-128
18453.846153846156,-128
18461.53846153846,-135
18469.23076923077,-125
18476.923076923078,-123
18484.615384615387,-135
18492.30769230769,-133
18500.0,-114
18507.69230769231,-114
18515.384615384617,-133
18523.076923076922,-140
18530.76923076923,-142
18538.46153846154,-121
18546.153846153848,-87
18553.846153846156,-78
18561.53846153846,-71
18569.23076923077,-83
18576.923076923078,-104
18584.615384615387,-121
18592.30769230769,-152
18600.0,-156
18607.69230769231,-125
18615.384615384617,-109
18623.076923076922,-116
18630.76923076923,-114
18638.46153846154,-111
18646.153846153848,-121
18653.846153846156,-130
18661.53846153846,-125
18669.23076923077,-121
18676.923076923078,-116
18684.615384615387,-130
18692.30769230769,-197
18700.0,-327
18707.69230769231,-392
18715.384615384617,-156
18723.076923076922,501
18730.76923076923,1508
18738.46153846154,2100
18746.153846153848,1340
18753.846153846156,-19
18761.53846153846,-508
18769.23076923077,-346
18776.923076923078,-361
18784.615384615387,-430
18792.30769230769,-370
18800.0,-351
18807.69230769231,-358
18815.384615384617,-320
18823.076923076922,-287
18830.76923076923,-287
18838.46153846154,-266
18846.153846153848,-242
18853.846153846156,-251
18861.53846153846,-259
18869.23076923077,-232
18876.923076923078,-197
18884.615384615387,-187
18892.30769230769,-199
18900.0,-197
18907.69230769231,-180
18915.384615384617,-156
18923.076923076922,-133
18930.76923076923,-137
18938.46153846154,-135
18946.153846153848,-99
18953.846153846156,-83
18961.53846153846,-68
18969.23076923077,-28
18976.923076923078,-23
18984.615384615387,-66
18992.30769230769,-104
19000.0,-128
19007.69230769231,-159
19015.384615384617,-199
19023.076923076922,-218
19030.76923076923,-223
19038.46153846154,-235
19046.153846153848,-249
19053.846153846156,-244
19061.53846153846,-242
19069.23076923077,-251
19076.923076923078,-235
19084.615384615387,-216
19092.30769230769,-225
19100.0,-213
19107.69230769231,-201
19115.384615384617,-218
19123.076923076922,-230
19130.76923076923,-251
19138.46153846154,-247
19146.153846153848,-211
19153.846153846156,-199
19161.53846153846,-199
19169.23076923077,-204
19176.923076923078,-220
19184.615384615387,-206
19192.30769230769,-192
19200.0,-201
19207.69230769231,-201
19215.384615384617,-199
19223.076923076922,-211
19230.76923076923,-204
19238.46153846154,-192
19246.153846153848,-199
19253.846153846156,-201
19261.53846153846,-194
19269.23076923077,-206
19276.923076923078,-197
19284.615384615387,-180
19292.30769230769,-190
19300.0,-199
19307.69230769231,-201
19315.384615384617,-204
19323.076923076922,-199
19330.76923076923,-204
19338.46153846154,-211
19346.153846153848,-209
19353.846153846156,-213
19361.53846153846,-213
19369.23076923077,-220
19376.923076923078,-232
19384.615384615387,-223
19392.30769230769,-209
19400.0,-199
19407.69230769231,-190
19415.384615384617,-185
19423.076923076922,-173
19430.76923076923,-187
19438.46153846154,-223
19446.153846153848,-242
19453.846153846156,-251
19461.53846153846,-247
19469.23076923077,-225
19476.923076923078,-204
19484.615384615387,-218
19492.30769230769,-249
19500.0,-256
19507.69230769231,-244
19515.384615384617,-230
19523.076923076922,-225
19530.76923076923,-249
19538.46153846154,-266
19546.153846153848,-280
19553.846153846156,-370
19561.53846153846,-482
19569.23076923077,-375
19576.923076923078,80
19584.615384615387,919
19592.30769230769,1791
19600.0,1708
19607.69230769231,472
19615.384615384617,-539
19623.076923076922,-589
19630.76923076923,-446
19638.46153846154,-508
19646.153846153848,-503
19653.846153846156,-453
19661.53846153846,-451
19669.23076923077,-432
19676.923076923078,-396
19684.615384615387,-363
19692.30769230769,-342
19700.0,-342
19707.69230769231,-337
19715.384615384617,-327
19723.076923076922,-318
19730.76923076923,-289
19738.46153846154,-266
19746.153846153848,-256
19753.846153846156,-242
19761.53846153846,-232
19769.23076923077,-230
19776.923076923078,-197
19784.615384615387,-144
19792.30769230769,-135
19800.0,-147
19807.69230769231,-135
19815.384615384617,-95
19823.076923076922,-68
19830.76923076923,-95
19838.46153846154,-109
19846.153846153848,-104
19853.846153846156,-133
19861.53846153846,-175
19869.23076923077,-218
19876.923076923078,-256
19884.615384615387,-266
19892.30769230769,-280
19900.0,-299
19907.69230769231,-294
19915.384615384617,-294
19923.076923076922,-292
19930.76923076923,-287
19938.46153846154,-304
19946.153846153848,-306
19953.846153846156,-275
19961.53846153846,-254
19969.23076923077,-268
19976.923076923078,-287
19984.615384615387,-275
19992.30769230769,-254
20000.0,-254
20007.69230769231,-251
20015.384615384617,-249
20023.076923076922,-259
20030.76923076923,-254
20038.46153846154,-244
20046.153846153848,-261
20053.846153846156,-266
20061.53846153846,-247
20069.23076923077,-249
20076.923076923078,-259
20084.615384615387,-251
20092.30769230769,-247
20100.0,-251
20107.69230769231,-261
20115.384615384617,-270
20123.076923076922,-256
20130.76923076923,-235
20138.46153846154,-242
20146.153846153848,-256
20153.846153846156,-249
20161.53846153846,-240
20169.23076923077,-263
20176.923076923078,-275
20184.615384615387,-256
20192.30769230769,-247
20200.0,-249
20207.69230769231,-256
20215.384615384617,-263
20223.076923076922,-249
20230.76923076923,-240
20238.46153846154,-273
20246.153846153848,-289
20253.846153846156,-256
20261.53846153846,-235
20269.23076923077,-242
20276.923076923078,-235
20284.615384615387,-213
20292.30769230769,-211
20300.0,-230
20307.69230769231,-249
20315.384615384617,-247
20323.076923076922,-232
20330.76923076923,-235
20338.46153846154,-247
20346.153846153848,-247
20353.846153846156,-232
20361.53846153846,-228
20369.23076923077,-235
20376.923076923078,-225
20384.615384615387,-218
20392.30769230769,-237
20400.0,-254
20407.69230769231,-304
20415.384615384617,-453
20423.076923076922,-532
20430.76923076923,-251
20438.46153846154,458
20446.153846153848,1449
20453.846153846156,1967
20461.53846153846,1123
20469.23076923077,-280
20476.923076923078,-679
20484.615384615387,-406
20492.30769230769,-437
20500.0,-532
20507.69230769231,-434
20515.384615384617,-399
20523.076923076922,-430
20530.76923076923,-396
20538.46153846154,-346
20546.153846153848,-332
20553.846153846156,-323
20561.53846153846,-306
20569.23076923077,-306
20576.923076923078,-294
20584.615384615387,-259
20592.30769230769,-249
20600.0,-259
20607.69230769231,-244
20615.384615384617,-218
20623.076923076922,-201
20630.76923076923,-194
20638.46153846154,-175
20646.153846153848,-154
20653.846153846156,-144
20661.53846153846,-130
20669.23076923077,-102
20676.923076923078,-71
20684.615384615387,-59
20692.30769230769,-64
20700.0,-80
20707.69230769231,-118
20715.384615384617,-156
20723.076923076922,-182
20730.76923076923,-213
20738.46153846154,-242
20746.153846153848,-263
20753.846153846156,-275
20761.53846153846,-268
20769.23076923077,-266
20776.923076923078,-268
20784.615384615387,-261
20792.30769230769,-244
20800.0,-225
20807.69230769231,-213
20815.384615384617,-201
20823.076923076922,-182
20830.76923076923,-182
20838.46153846154,-213
20846.153846153848,-228
20853.846153846156,-194
20861.53846153846,-159
20869.23076923077,-161
20876.923076923078,-168
20884.615384615387,-168
20892.30769230769,-171
20900.0,-152
20907.69230769231,-125
20915.384615384617,-137
20923.076923076922,-144
20930.76923076923,-135
20938.46153846154,-128
20946.153846153848,-135
20953.846153846156,-137
20961.53846153846,-116
20969.23076923077,-106
20976.923076923078,-106
20984.615384615387,-95
20992.30769230769,-92
21000.0,-95
21007.69230769231,-87
21015.384615384617,-80
21023.076923076922,-83
21030.76923076923,-85
21038.46153846154,-73
21046.153846153848,-52
21053.846153846156,-57
21061.53846153846,-85
21069.23076923077,-90
21076.923076923078,-49
21084.615384615387,-9
21092.30769230769,-9
21100.0,-4
21107.69230769231,11
21115.384615384617,-7
21123.076923076922,-28
21130.76923076923,-26
21138.46153846154,-21
21146.153846153848,-19
21153.846153846156,-26
21161.53846153846,-28
21169.23076923077,-30
21176.923076923078,-21
21184.615384615387,-11
21192.30769230769,-16
21200.0,-23
21207.69230769231,-23
21215.384615384617,-11
21223.076923076922,-14
21230.76923076923,-99
21238.46153846154,-254
21246.153846153848,-266
21253.846153846156,40
21261.53846153846,750
21269.23076923077,1784
21276.923076923078,2288
21284.615384615387,1418
21292.30769230769,45
21300.0,-425
21307.69230769231,-263
21315.384615384617,-285
21323.076923076922,-358
21330.76923076923,-287
21338.46153846154,-247
21346.153846153848,-254
21353.846153846156,-230
21361.53846153846,-194
21369.23076923077,-182
21376.923076923078,-178
21384.615384615387,-163
21392.30769230769,-152
21400.0,-142
21407.69230769231,-128
21415.384615384617,-109
21423.076923076922,-111
21430.76923076923,-135
21438.46153846154,-116
21446.153846153848,-76
21453.846153846156,-71
21461.53846153846,-59
21469.23076923077,-26
21476.923076923078,-7
21484.615384615387,16
21492.30769230769,49
21500.0,73
21507.69230769231,83
21515.384615384617,68
21523.076923076922,47
21530.76923076923,23
21538.46153846154,-9
21546.153846153848,-49
21553.846153846156,-83
21561.53846153846,-109
21569.23076923077,-133
21576.923076923078,-142
21584.615384615387,-133
21592.30769230769,-140
21600.0,-147
21607.69230769231,-135
21615.384615384617,-137
21623.076923076922,-140
21630.76923076923,-130
21638.46153846154,-116
21646.153846153848,-106
21653.846153846156,-114
21661.53846153846,-118
21669.23076923077,-116
21676.923076923078,-114
21684.615384615387,-106
21692.30769230769,-116
21700.0,-128
21707.69230769231,-123
21715.384615384617,-116
21723.076923076922,-118
21730.76923076923,-121
21738.46153846154,-118
21746.153846153848,-116
21753.846153846156,-123
21761.53846153846,-125
21769.23076923077,-118
21776.923076923078,-121
21784.615384615387,-125
21792.30769230769,-118
21800.0,-106
21807.69230769231,-114
21815.384615384617,-125
21823.076923076922,-116
21830.76923076923,-111
21838.46153846154,-128
21846.153846153848,-133
21853.846153846156,-116
21861.53846153846,-102
21869.23076923077,-111
21876.923076923078,-121
21884.615384615387,-114
21892.30769230769,-123
21900.0,-137
21907.69230769231,-135
21915.384615384617,-106
21923.076923076922,-68
21930.76923076923,-68
21938.46153846154,-80
21946.153846153848,-61
21953.846153846156,-68
21961.53846153846,-123
21969.23076923077,-161
21976.923076923078,-137
21984.615384615387,-102
21992.30769230769,-111
22000.0,-116
22007.69230769231,-99
22015.384615384617,-99
22023.076923076922,-99
22030.76923076923,-102
22038.46153846154,-106
22046.153846153848,-90
22053.846153846156,-83
22061.53846153846,-95
22069.23076923077,-109
22076.923076923078,-171
22084.615384615387,-308
22092.30769230769,-344
22100.0,-52
22107.69230769231,660
22115.384615384617,1696
22123.076923076922,2262
22130.76923076923,1428
22138.46153846154,16
22146.153846153848,-484
22153.846153846156,-316
22161.53846153846,-325
22169.23076923077,-399
22176.923076923078,-323
22184.615384615387,-266
22192.30769230769,-273
22200.0,-240
22207.69230769231,-173
22215.384615384617,-154
22223.076923076922,-130
22230.76923076923,-78
22238.46153846154,-47
22246.153846153848,-14
22253.846153846156,40
22261.53846153846,68
22269.23076923077,76
22276.923076923078,106
22284.615384615387,152
22292.30769230769,180
22300.0,206
22307.69230769231,251
22315.384615384617,289
22323.076923076922,311
22330.76923076923,335
22338.46153846154,375
22346.153846153848,406
22353.846153846156,406
22361.53846153846,408
22369.23076923077,422
22376.923076923078,403
22384.615384615387,351
22392.30769230769,308
22400.0,285
22407.69230769231,251
22415.384615384617,220
22423.076923076922,232
22430.76923076923,251
22438.46153846154,240
22446.153846153848,237
22453.846153846156,259
22461.53846153846,268
22469.23076923077,256
22476.923076923078,261
22484.615384615387,292
22492.30769230769,304
22500.0,292
22507.69230769231,285
22515.384615384617,285
22523.076923076922,304
22530.76923076923,320
22538.46153846154,316
22546.153846153848,313
22553.846153846156,318
22561.53846153846,323
22569.23076923077,318
22576.923076923078,311
22584.615384615387,316
22592.30769230769,313
22600.0,304
22607.69230769231,304
22615.384615384617,306
22623.076923076922,304
22630.76923076923,299
22638.46153846154,299
22646.153846153848,301
22653.846153846156,289
22661.53846153846,282
22669.23076923077,282
22676.923076923078,275
22684.615384615387,270
22692.30769230769,270
22700.0,266
22707.69230769231,263
22715.384615384617,254
22723.076923076922,242
22730.76923076923,240
22738.46153846154,259
22746.153846153848,280
22753.846153846156,285
22761.53846153846,292
22769.23076923077,278
22776.923076923078,240
22784.615384615387,218
22792.30769230769,225
22800.0,232
22807.69230769231,230
22815.384615384617,218
22823.076923076922,206
22830.76923076923,194
22838.46153846154,194
22846.153846153848,201
22853.846153846156,199
22861.53846153846,185
22869.23076923077,173
22876.923076923078,175
22884.615384615387,168
22892.30769230769,97
22900.0,-54
22907.69230769231,-123
22915.384615384617,85
22923.076923076922,672
22930.76923076923,1656
22938.46153846154,2419
22946.153846153848,1903
22953.846153846156,468
22961.53846153846,-313
22969.23076923077,-211
22976.923076923078,-137
22984.615384615387,-199
22992.30769230769,-166
23000.0,-154
23007.69230769231,-166
23015.384615384617,-159
23023.076923076922,-171
23030.76923076923,-149
23038.46153846154,-95
23046.153846153848,-123
23053.846153846156,-168
23061.53846153846,-128
23069.23076923077,-114
23076.923076923078,-149
23084.615384615387,-173
23092.30769230769,-211
23100.0,-228
23107.69230769231,-163
23115.384615384617,-133
23123.076923076922,-185
23130.76923076923,-204
23138.46153846154,-166
23146.153846153848,-152
23153.846153846156,-166
23161.53846153846,-154
23169.23076923077,-128
23176.923076923078,-121
23184.615384615387,-137
23192.30769230769,-178
23200.0,-220
23207.69230769231,-251
23215.384615384617,-297
23223.076923076922,-344
23230.76923076923,-356
23238.46153846154,-361
23246.153846153848,-380
23253.846153846156,-363
23261.53846153846,-313
23269.23076923077,-335
23276.923076923078,-394
23284.615384615387,-373
23292.30769230769,-330
23300.0,-344
23307.69230769231,-351
23315.384615384617,-330
23323.076923076922,-337
23330.76923076923,-358
23338.46153846154,-339
23346.153846153848,-330
23353.846153846156,-351
23361.53846153846,-375
23369.23076923077,-370
23376.923076923078,-320
23384.615384615387,-285
23392.30769230769,-311
23400.0,-335
23407.69230769231,-337
23415.384615384617,-335
23423.076923076922,-327
23430.76923076923,-327
23438.46153846154,-318
23446.153846153848,-289
23453.846153846156,-278
23461.53846153846,-297
23469.23076923077,-318
23476.923076923078,-332
23484.615384615387,-351
23492.30769230769,-361
23500.0,-349
23507.69230769231,-306
23515.384615384617,-294
23523.076923076922,-332
23530.76923076923,-327
23538.46153846154,-304
23546.153846153848,-339
23553.846153846156,-365
23561.53846153846,-349
23569.23076923077,-349
23576.923076923078,-373
23584.615384615387,-368
23592.30769230769,-342
23600.0,-323
23607.69230769231,-294
23615.384615384617,-294
23623.076923076922,-325
23630.76923076923,-311
23638.46153846154,-301
23646.153846153848,-335
23653.846153846156,-346
23661.53846153846,-332
23669.23076923077,-337
23676.923076923078,-332
23684.615384615387,-301
23692.30769230769,-306
23700.0,-337
23707.69230769231,-330
23715.384615384617,-297
23723.076923076922,-289
23730.76923076923,-301
23738.46153846154,-304
23746.153846153848,-299
23753.846153846156,-304
23761.53846153846,-375
23769.23076923077,-522
23776.923076923078,-525
23784.615384615387,-197
23792.30769230769,477
23800.0,1456
23807.69230769231,1953
23815.384615384617,1090
23823.076923076922,-240
23830.76923076923,-665
23838.46153846154,-510
23846.153846153848,-534
23853.846153846156,-598
23861.53846153846,-544
23869.23076923077,-494
23876.923076923078,-468
23884.615384615387,-456
23892.30769230769,-430
23900.0,-406
23907.69230769231,-420
23915.384615384617,-413
23923.076923076922,-363
23930.76923076923,-349
23938.46153846154,-361
23946.153846153848,-354
23953.846153846156,-327
23961.53846153846,-306
23969.23076923077,-297
23976.923076923078,-285
23984.615384615387,-280
23992.30769230769,-254
24000.0,-220
24007.69230769231,-204
24015.384615384617,-187
24023.076923076922,-171
24030.76923076923,-161
24038.46153846154,-147
24046.153846153848,-135
24053.846153846156,-109
24061.53846153846,-121
24069.23076923077,-199
24076.923076923078,-240
24084.615384615387,-249
24092.30769230769,-294
24100.0,-323
24107.69230769231,-313
24115.384615384617,-306
24123.076923076922,-306
24130.76923076923,-304
24138.46153846154,-292
24146.153846153848,-297
24153.846153846156,-311
24161.53846153846,-287
24169.23076923077,-244
24176.923076923078,-235
24184.615384615387,-249
24192.30769230769,-256
24200.0,-249
24207.69230769231,-232
24215.384615384617,-251
24223.076923076922,-280
24230.76923076923,-251
24238.46153846154,-220
24246.153846153848,-240
24253.846153846156,-254
24261.53846153846,-232
24269.23076923077,-223
24276.923076923078,-218
24284.615384615387,-199
24292.30769230769,-197
24300.0,-211
24307.69230769231,-216
24315.384615384617,-206
24323.076923076922,-206
24330.76923076923,-225
24338.46153846154,-213
24346.153846153848,-190
24353.846153846156,-204
24361.53846153846,-199
24369.23076923077,-182
24376.923076923078,-199
24384.615384615387,-211
24392.30769230769,-209
24400.0,-190
24407.69230769231,-175
24415.384615384617,-190
24423.076923076922,-204
24430.76923076923,-201
24438.46153846154,-206
24446.153846153848,-213
24453.846153846156,-220
24461.53846153846,-228
24469.23076923077,-218
24476.923076923078,-178
24484.615384615387,-159
24492.30769230769,-168
24500.0,-142
24507.69230769231,-125
24515.384615384617,-161
24523.076923076922,-201
24530.76923076923,-216
24538.46153846154,-199
24546.153846153848,-178
24553.846153846156,-168
24561.53846153846,-185
24569.23076923077,-206
24576.923076923078,-194
24584.615384615387,-173
24592.30769230769,-168
24600.0,-180
24607.69230769231,-180
24615.384615384617,-166
24623.076923076922,-173
24630.76923076923,-237
24638.46153846154,-365
24646.153846153848,-451
24653.846153846156,-259
24661.53846153846,335
24669.23076923077,1330
24676.923076923078,2148
24684.615384615387,1680
24692.30769230769,218
24700.0,-548
24707.69230769231,-382
24715.384615384617,-332
24723.076923076922,-461
24730.76923076923,-377
24738.46153846154,-289
24746.153846153848,-308
24753.846153846156,-318
24761.53846153846,-313
24769.23076923077,-261
24776.923076923078,-173
24784.615384615387,-178
24792.30769230769,-206
24800.0,-173
24807.69230769231,-133
24815.384615384617,-104
24823.076923076922,-92
24830.76923076923,-99
24838.46153846154,-97
24846.153846153848,-78
24853.846153846156,-68
24861.53846153846,-47
24869.23076923077,-14
24876.923076923078,14
24884.615384615387,45
24892.30769230769,47
24900.0,28
24907.69230769231,49
24915.384615384617,80
24923.076923076922,66
24930.76923076923,28
24938.46153846154,-7
24946.153846153848,-54
24953.846153846156,-99
24961.53846153846,-116
24969.23076923077,-133
24976.923076923078,-152
24984.615384615387,-161
24992.30769230769,-171
25000.0,-166
25007.69230769231,-140
25015.384615384617,-135
25023.076923076922,-147
25030.76923076923,-144
25038.46153846154,-123
25046.153846153848,-116
25053.846153846156,-130
25061.53846153846,-135
25069.23076923077,-116
25076.923076923078,-106
25084.615384615387,-114
25092.30769230769,-104
25100.0,-83
25107.69230769231,-90
25115.384615384617,-123
25123.076923076922,-130
25130.76923076923,-102
25138.46153846154,-106
25146.153846153848,-116
25153.846153846156,-85
25161.53846153846,-85
25169.23076923077,-121
25176.923076923078,-123
25184.615384615387,-99
25192.30769230769,-97
25200.0,-114
25207.69230769231,-118
25215.384615384617,-111
25223.076923076922,-104
25230.76923076923,-102
25238.46153846154,-114
25246.153846153848,-135
25253.846153846156,-118
25261.53846153846,-83
25269.23076923077,-104
25276.923076923078,-161
25284.615384615387,-149
25292.30769230769,-116
25300.0,-140
25307.69230769231,-137
25315.384615384617,-95
25323.076923076922,-104
25330.76923076923,-104
25338.46153846154,-80
25346.153846153848,-130
25353.846153846156,-178
25361.53846153846,-137
25369.23076923077,-123
25376.923076923078,-156
25384.615384615387,-166
25392.30769230769,-149
25400.0,-140
25407.69230769231,-144
25415.384615384617,-159
25423.076923076922,-168
25430.76923076923,-154
25438.46153846154,-142
25446.153846153848,-159
25453.846153846156,-180
25461.53846153846,-204
25469.23076923077,-318
25476.923076923078,-437
25484.615384615387,-332
25492.30769230769,133
25500.0,1055
25507.69230769231,1998
25515.384615384617,1841
25523.076923076922,522
25530.76923076923,-480
25538.46153846154,-525
25546.153846153848,-411
25553.846153846156,-491
25561.53846153846,-491
25569.23076923077,-434
25576.923076923078,-415
25584.615384615387,-394
25592.30769230769,-370
25600.0,-349
25607.69230769231,-325
25615.384615384617,-316
25623.076923076922,-311
25630.76923076923,-297
25638.46153846154,-278
25646.153846153848,-240
25653.846153846156,-230
25661.53846153846,-259
25669.23076923077,-254
25676.923076923078,-209
25684.615384615387,-185
25692.30769230769,-187
25700.0,-175
25707.69230769231,-149
25715.384615384617,-137
25723.076923076922,-99
25730.76923076923,-45
25738.46153846154,-49
25746.153846153848,-76
25753.846153846156,-85
25761.53846153846,-102
25769.23076923077,-133
25776.923076923078,-173
25784.615384615387,-194
25792.30769230769,-209
25800.0,-249
25807.69230769231,-268
25815.384615384617,-256
25823.076923076922,-259
25830.76923076923,-278
25838.46153846154,-289
25846.153846153848,-287
25853.846153846156,-273
25861.53846153846,-266
25869.23076923077,-254
25876.923076923078,-247
25884.615384615387,-278
25892.30769230769,-299
25900.0,-280
25907.69230769231,-263
25915.384615384617,-266
25923.076923076922,-280
25930.76923076923,-285
25938.46153846154,-278
25946.153846153848,-297
25953.846153846156,-304
25961.53846153846,-266
25969.23076923077,-268
25976.923076923078,-297
25984.615384615387,-294
25992.30769230769,-313
26000.0,-337
26007.69230769231,-332
26015.384615384617,-342
26023.076923076922,-365
26030.76923076923,-346
26038.46153846154,-325
26046.153846153848,-358
26053.846153846156,-396
26061.53846153846,-408
26069.23076923077,-399
26076.923076923078,-387
26084.615384615387,-403
26092.30769230769,-422
26100.0,-418
26107.69230769231,-439
26115.384615384617,-484
26123.076923076922,-482
26130.76923076923,-456
26138.46153846154,-437
26146.153846153848,-413
26153.846153846156,-394
26161.53846153846,-392
26169.23076923077,-403
26176.923076923078,-427
26184.615384615387,-439
26192.30769230769,-430
26200.0,-437
26207.69230769231,-446
26215.384615384617,-427
26223.076923076922,-401
26230.76923076923,-384
26238.46153846154,-403
26246.153846153848,-425
26253.846153846156,-413
26261.53846153846,-401
26269.23076923077,-406
26276.923076923078,-396
26284.615384615387,-389
26292.30769230769,-430
26300.0,-563
26307.69230769231,-655
26315.384615384617,-456
26323.076923076926,118
26330.76923076923,1062
26338.46153846154,1870
26346.153846153848,1470
26353.846153846156,85
26361.53846153846,-701
26369.23076923077,-615
26376.923076923078,-591
26384.615384615387,-698
26392.30769230769,-629
26400.0,-558
26407.69230769231,-558
26415.384615384617,-546
26423.076923076926,-548
26430.76923076923,-539
26438.46153846154,-480
26446.153846153848,-444
26453.846153846156,-446
26461.53846153846,-446
26469.23076923077,-434
26476.923076923078,-411
26484.615384615387,-370
26492.30769230769,-337
26500.0,-351
26507.69230769231,-382
26515.384615384617,-354
26523.076923076926,-280
26530.76923076923,-254
26538.46153846154,-261
26546.153846153848,-242
26553.846153846156,-223
26561.53846153846,-192
26569.23076923077,-156
26576.923076923078,-142
26584.615384615387,-121
26592.30769230769,-114
26600.0,-173
26607.69230769231,-237
26615.384615384617,-251
26623.076923076926,-275
26630.76923076923,-316
26638.46153846154,-304
26646.153846153848,-299
26653.846153846156,-354
26661.53846153846,-346
26669.23076923077,-285
26676.923076923078,-282
26684.615384615387,-297
26692.30769230769,-275
26700.0,-270
26707.69230769231,-273
26715.384615384617,-247
26723.076923076926,-230
26730.76923076923,-240
26738.46153846154,-230
26746.153846153848,-201
26753.846153846156,-204
26761.53846153846,-185
26769.23076923077,-121
26776.923076923078,-118
26784.615384615387,-173
26792.30769230769,-192
26800.0,-209
26807.69230769231,-218
26815.384615384617,-194
26823.076923076926,-178
26830.76923076923,-175
26838.46153846154,-163
26846.153846153848,-149
26853.846153846156,-154
26861.53846153846,-149
26869.23076923077,-121
26876.923076923078,-109
26884.615384615387,-133
26892.30769230769,-154
26900.0,-135
26907.69230769231,-92
26915.384615384617,-40
26923.076923076926,-21
26930.76923076923,-40
26938.46153846154,-35
26946.153846153848,-19
26953.846153846156,-19
26961.53846153846,0
26969.23076923077,21
26976.923076923078,45
26984.615384615387,116
26992.30769230769,173
27000.0,192
27007.69230769231,192
27015.384615384617,168
27023.076923076926,166
27030.76923076923,178
27038.46153846154,185
27046.153846153848,201
27053.846153846156,209
27061.53846153846,228
27069.23076923077,261
27076.923076923078,256
27084.615384615387,240
27092.30769230769,249
27100.0,254
27107.69230769231,249
27115.384615384617,232
27123.076923076926,209
27130.76923076923,218
27138.46153846154,237
27146.153846153848,130
27153.846153846156,-11
27161.53846153846,106
27169.23076923077,594
27176.923076923078,1406
27184.615384615387,2198
27192.30769230769,2005
27200.0,731
27207.69230769231,-152
27215.384615384617,-61
27223.076923076926,76
27230.76923076923,-64
27238.46153846154,-85
27246.153846153848,9
27253.846153846156,33
27261.53846153846,35
27269.23076923077,73
27276.923076923078,106
27284.615384615387,130
27292.30769230769,147
27300.0,147
27307.69230769231,190
27315.384615384617,261
27323.076923076926,268
27330.76923076923,268
27338.46153846154,308
27346.153846153848,330
27353.846153846156,327
27361.53846153846,327
27369.23076923077,365
27376.923076923078,444
27384.615384615387,482
27392.30769230769,465
27400.0,477
27407.69230769231,501
27415.384615384617,518
27423.076923076926,567
27430.76923076923,575
27438.46153846154,527
27446.153846153848,501
27453.846153846156,472
27461.53846153846,425
27469.23076923077,399
27476.923076923078,382
27484.615384615387,342
27492.30769230769,335
27500.0,373
27507.69230769231,375
27515.384615384617,335
27523.076923076926,335
27530.76923076923,365
27538.46153846154,354
27546.153846153848,327
27553.846153846156,349
27561.53846153846,399
27569.23076923077,389
27576.923076923078,330
27584.615384615387,320
27592.30769230769,349
27600.0,349
27607.69230769231,327
27615.384615384617,311
27623.076923076926,297
27630.76923076923,308
27638.46153846154,330
27646.153846153848,332
27653.846153846156,332
27661.53846153846,318
27669.23076923077,301
27676.923076923078,308
27684.615384615387,297
27692.30769230769,270
27700.0,268
27707.69230769231,278
27715.384615384617,278
27723.076923076926,289
27730.76923076923,304
27738.46153846154,285
27746.153846153848,263
27753.846153846156,266
27761.53846153846,251
27769.23076923077,218
27776.923076923078,225
27784.615384615387,278
27792.30769230769,292
27800.0,270
27807.69230769231,263
27815.384615384617,270
27823.076923076926,278
27830.76923076923,247
27838.46153846154,213
27846.153846153848,216
27853.846153846156,213
27861.53846153846,204
27869.23076923077,201
27876.923076923078,209
27884.615384615387,199
27892.30769230769,178
27900.0,204
27907.69230769231,220
27915.384615384617,185
27923.076923076926,173
27930.76923076923,161
27938.46153846154,26
27946.153846153848,-144
27953.846153846156,-59
27961.53846153846,434
27969.23076923077,1302
27976.923076923078,2214
27984.615384615387,2190
27992.30769230769,917
28000.0,-159
28007.69230769231,-182
28015.384615384617,-38
28023.076923076926,-173
28030.76923076923,-201
28038.46153846154,-102
28046.153846153848,-68
28053.846153846156,-83
28061.53846153846,-68
28069.23076923077,-38
28076.923076923078,-23
28084.615384615387,-19
28092.30769230769,-14
28100.0,9
28107.69230769231,28
28115.384615384617,33
28123.076923076926,30
28130.76923076923,16
28138.46153846154,21
28146.153846153848,40
28153.846153846156,49
28161.53846153846,73
28169.23076923077,104
28176.923076923078,99
28184.615384615387,83
28192.30769230769,109
28200.0,159
28207.69230769231,168
28215.384615384617,140
28223.076923076926,102
28230.76923076923,71
28238.46153846154,54
28246.153846153848,0
28253.846153846156,-80
28261.53846153846,-116
28269.23076923077,-142
28276.923076923078,-185
28284.615384615387,-213
28292.30769230769,-209
28300.0,-206
28307.69230769231,-240
28315.384615384617,-278
28323.076923076926,-275
28330.76923076923,-273
28338.46153846154,-292
28346.153846153848,-304
28353.846153846156,-304
28361.53846153846,-308
28369.23076923077,-313
28376.923076923078,-316
28384.615384615387,-323
28392.30769230769,-323
28400.0,-330
28407.69230769231,-354
28415.384615384617,-332
28423.076923076926,-292
28430.76923076923,-311
28438.46153846154,-323
28446.153846153848,-308
28453.846153846156,-339
28461.53846153846,-363
28469.23076923077,-339
28476.923076923078,-320
28484.615384615387,-339
28492.30769230769,-339
28500.0,-304
28507.69230769231,-306
28515.384615384617,-335
28523.076923076926,-327
28530.76923076923,-332
28538.46153846154,-375
28546.153846153848,-375
28553.846153846156,-344
28561.53846153846,-308
28569.23076923077,-261
28576.923076923078,-254
28584.615384615387,-289
28592.30769230769,-289
28600.0,-273
28607.69230769231,-304
28615.384615384617,-323
28623.076923076926,-299
28630.76923076923,-308
28638.46153846154,-325
28646.153846153848,-320
28653.846153846156,-330
28661.53846153846,-335
28669.23076923077,-339
28676.923076923078,-337
28684.615384615387,-316
28692.30769230769,-306
28700.0,-311
28707.69230769231,-332
28715.384615384617,-401
28723.076923076926,-532
28730.76923076923,-653
28738.46153846154,-577
28746.153846153848,-194
28753.846153846156,594
28761.53846153846,1661
28769.23076923077,1979
28776.923076923078,855
28784.615384615387,-444
28792.30769230769,-722
28800.0,-608
28807.69230769231,-701
28815.384615384617,-741
28823.076923076926,-672
28830.76923076923,-627
28838.46153846154,-591
28846.153846153848,-567
28853.846153846156,-589
28861.53846153846,-584
28869.23076923077,-532
28876.923076923078,-515
28884.615384615387,-539
28892.30769230769,-544
28900.0,-522
28907.69230769231,-494
28915.384615384617,-489
28923.076923076926,-484
28930.76923076923,-496
28938.46153846154,-503
28946.153846153848,-453
28953.846153846156,-437
28961.53846153846,-458
28969.23076923077,-425
28976.923076923078,-394
28984.615384615387,-403
28992.30769230769,-399
29000.0,-403
29007.69230769231,-403
29015.384615384617,-375
29023.076923076926,-420
29030.76923076923,-506
29038.46153846154,-532
29046.153846153848,-563
29053.846153846156,-603
29061.53846153846,-572
29069.23076923077,-558
29076.923076923078,-624
29084.615384615387,-634
29092.30769230769,-579
29100.0,-577
29107.69230769231,-596
29115.384615384617,-572
29123.076923076926,-537
29130.76923076923,-565
29138.46153846154,-591
29146.153846153848,-565
29153.846153846156,-556
29161.53846153846,-565
29169.23076923077,-546
29176.923076923078,-541
29184.615384615387,-556
29192.30769230769,-537
29200.0,-539
29207.69230769231,-572
29215.384615384617,-548
29223.076923076926,-510
29230.76923076923,-539
29238.46153846154,-567
29246.153846153848,-544
29253.846153846156,-546
29261.53846153846,-582
29269.23076923077,-577
29276.923076923078,-544
29284.615384615387,-515
29292.30769230769,-494
29300.0,-513
29307.69230769231,-548
29315.384615384617,-520
29323.076923076926,-482
29330.76923076923,-499
29338.46153846154,-525
29346.153846153848,-513
29353.846153846156,-499
29361.53846153846,-484
29369.23076923077,-468
29376.923076923078,-501
29384.615384615387,-529
29392.30769230769,-482
29400.0,-422
29407.69230769231,-444
29415.384615384617,-494
29423.076923076926,-439
29430.76923076923,-377
29438.46153846154,-451
29446.153846153848,-522
29453.846153846156,-477
29461.53846153846,-437
29469.23076923077,-477
29476.923076923078,-503
29484.615384615387,-444
29492.30769230769,-422
29500.0,-470
29507.69230769231,-463
29515.384615384617,-439
29523.076923076926,-472
29530.76923076923,-465
29538.46153846154,-415
29546.153846153848,-449
29553.846153846156,-539
29561.53846153846,-634
29569.23076923077,-667
29576.923076923078,-444
29584.615384615387,190
29592.30769230769,1200
29600.0,1865
29607.69230769231,1214
29615.384615384617,-149
29623.076923076926,-760
29630.76923076923,-665
29638.46153846154,-681
29646.153846153848,-743
29653.846153846156,-667
29661.53846153846,-651
29669.23076923077,-672
29676.923076923078,-617
29684.615384615387,-570
29692.30769230769,-591
29700.0,-579
29707.69230769231,-525
29715.384615384617,-508
29723.076923076926,-499
29730.76923076923,-468
29738.46153846154,-458
29746.153846153848,-463
29753.846153846156,-461
29761.53846153846,-451
29769.23076923077,-430
29776.923076923078,-422
29784.615384615387,-384
29792.30769230769,-313
29800.0,-339
29807.69230769231,-382
29815.384615384617,-306
29823.076923076926,-266
29830.76923076923,-304
29838.46153846154,-278
29846.153846153848,-232
29853.846153846156,-263
29861.53846153846,-297
29869.23076923077,-325
29876.923076923078,-387
29884.615384615387,-403
29892.30769230769,-387
29900.0,-394
29907.69230769231,-384
29915.384615384617,-384
29923.076923076926,-394
29930.76923076923,-375
29938.46153846154,-375
29946.153846153848,-375
29953.846153846156,-356
29961.53846153846,-373
29969.23076923077,-377
29976.923076923078,-320
29984.615384615387,-301
29992.30769230769,-339
30000.0,-325
30007.69230769231,-287
30015.384615384617,-320
30023.076923076926,-349
30030.76923076923,-316
30038.46153846154,-306
30046.153846153848,-335
30053.846153846156,-323
30061.53846153846,-304
30069.23076923077,-330
30076.923076923078,-342
30084.615384615387,-299
30092.30769230769,-273
30100.0,-306
30107.69230769231,-323
30115.384615384617,-280
30123.076923076926,-256
30130.76923076923,-299
30138.46153846154,-308
30146.153846153848,-261
30153.846153846156,-261
30161.53846153846,-311
30169.23076923077,-301
30176.923076923078,-261
30184.615384615387,-268
30192.30769230769,-268
30200.0,-254
30207.69230769231,-249
30215.384615384617,-270
30223.076923076926,-285
30230.76923076923,-251
30238.46153846154,-247
30246.153846153848,-311
30253.846153846156,-294
30261.53846153846,-225
30269.23076923077,-263
30276.923076923078,-306
30284.615384615387,-230
30292.30769230769,-163
30300.0,-197
30307.69230769231,-230
30315.384615384617,-216
30323.076923076926,-216
30330.76923076923,-261
30338.46153846154,-289
30346.153846153848,-270
30353.846153846156,-228
30361.53846153846,-228
30369.23076923077,-273
30376.923076923078,-261
30384.615384615387,-223
30392.30769230769,-256
30400.0,-287
30407.69230769231,-251
30415.384615384617,-218
30423.076923076926,-240
30430.76923076923,-256
30438.46153846154,-247
30446.153846153848,-311
30453.846153846156,-458
30461.53846153846,-496
30469.23076923077,-228
30476.923076923078,432
30484.615384615387,1411
30492.30769230769,1991
30500.0,1299
30507.69230769231,-7
30515.384615384617,-589
30523.076923076926,-520
30530.76923076923,-515
30538.46153846154,-532
30546.153846153848,-477
30553.846153846156,-508
30561.53846153846,-506
30569.23076923077,-415
30576.923076923078,-392
30584.615384615387,-401
30592.30769230769,-373
30600.0,-358
30607.69230769231,-354
30615.384615384617,-337
30623.076923076926,-332
30630.76923076923,-313
30638.46153846154,-275
30646.153846153848,-266
30653.846153846156,-273
30661.53846153846,-266
30669.23076923077,-251
30676.923076923078,-225
30684.615384615387,-206
30692.30769230769,-190
30700.0,-166
30707.69230769231,-166
30715.384615384617,-168
30723.076923076926,-128
30730.76923076923,-92
30738.46153846154,-125
30746.153846153848,-171
30753.846153846156,-161
30761.53846153846,-168
30769.23076923077,-232
30776.923076923078,-275
30784.615384615387,-285
30792.30769230769,-282
30800.0,-280
30807.69230769231,-287
30815.384615384617,-289
30823.076923076926,-289
30830.76923076923,-278
30838.46153846154,-232
30846.153846153848,-223
30853.846153846156,-261
30861.53846153846,-270
30869.23076923077,-254
30876.923076923078,-251
30884.615384615387,-247
30892.30769230769,-242
30900.0,-249
30907.69230769231,-237
30915.384615384617,-209
30923.076923076926,-206
30930.76923076923,-232
30938.46153846154,-240
30946.153846153848,-228
30953.846153846156,-235
30961.53846153846,-249
30969.23076923077,-249
30976.923076923078,-228
30984.615384615387,-216
30992.30769230769,-230
31000.0,-244
31007.69230769231,-244
31015.384615384617,-232
31023.076923076926,-216
31030.76923076923,-213
31038.46153846154,-218
31046.153846153848,-223
31053.846153846156,-228
31061.53846153846,-225
31069.23076923077,-228
31076.923076923078,-232
31084.615384615387,-218
31092.30769230769,-185
31100.0,-182
31107.69230769231,-211
31115.384615384617,-218
31123.076923076926,-216
31130.76923076923,-209
31138.46153846154,-178
31146.153846153848,-194
31153.846153846156,-232
31161.53846153846,-185
31169.23076923077,-130
31176.923076923078,-147
31184.615384615387,-159
31192.30769230769,-159
31200.0,-192
31207.69230769231,-204
31215.384615384617,-182
31223.076923076926,-182
31230.76923076923,-187
31238.46153846154,-185
31246.153846153848,-197
31253.846153846156,-197
31261.53846153846,-182
31269.23076923077,-199
31276.923076923078,-209
31284.615384615387,-185
31292.30769230769,-182
31300.0,-192
31307.69230769231,-185
31315.384615384617,-204
31323.076923076926,-318
31330.76923076923,-441
31338.46153846154,-354
31346.153846153848,49
31353.846153846156,845
31361.53846153846,1817
31369.23076923077,1941
31376.923076923078,765
31384.615384615387,-380
31392.30769230769,-527
31400.0,-394
31407.69230769231,-480
31415.384615384617,-480
31423.076923076926,-406
31430.76923076923,-415
31438.46153846154,-403
31446.153846153848,-342
31453.846153846156,-323
31461.53846153846,-339
31469.23076923077,-330
31476.923076923078,-299
31484.615384615387,-292
31492.30769230769,-304
31500.0,-289
31507.69230769231,-259
31515.384615384617,-249
31523.076923076926,-247
31530.76923076923,-218
31538.46153846154,-192
31546.153846153848,-185
31553.846153846156,-182
31561.53846153846,-187
31569.23076923077,-175
31576.923076923078,-133
31584.615384615387,-80
31592.30769230769,-54
31600.0,-57
31607.69230769231,-66
31615.384615384617,-76
31623.076923076926,-106
31630.76923076923,-142
31638.46153846154,-166
31646.153846153848,-178
31653.846153846156,-194
31661.53846153846,-199
31669.23076923077,-204
31676.923076923078,-216
31684.615384615387,-220
31692.30769230769,-211
31700.0,-204
31707.69230769231,-213
31715.384615384617,-213
31723.076923076926,-190
31730.76923076923,-182
31738.46153846154,-161
31746.153846153848,-135
31753.846153846156,-166
31761.53846153846,-185
31769.23076923077,-159
31776.923076923078,-154
31784.615384615387,-171
31792.30769230769,-166
31800.0,-152
31807.69230769231,-154
31815.384615384617,-163
31823.076923076926,-168
31830.76923076923,-159
31838.46153846154,-144
31846.153846153848,-147
31853.846153846156,-156
31861.53846153846,-163
31869.23076923077,-168
31876.923076923078,-168
31884.615384615387,-144
31892.30769230769,-125
31900.0,-149
31907.69230769231,-166
31915.384615384617,-156
31923.076923076926,-152
31930.76923076923,-154
31938.46153846154,-152
31946.153846153848,-152
31953.846153846156,-152
31961.53846153846,-161
31969.23076923077,-182
31976.923076923078,-178
31984.615384615387,-137
31992.30769230769,-125
32000.0,-142
32007.69230769231,-144
32015.384615384617,-128
32023.076923076926,-102
32030.76923076923,-80
32038.46153846154,-97
32046.153846153848,-147
32053.846153846156,-192
32061.53846153846,-201
32069.23076923077,-175
32076.923076923078,-137
32084.615384615387,-123
32092.30769230769,-147
32100.0,-166
32107.69230769231,-144
32115.384615384617,-123
32123.076923076926,-135
32130.76923076923,-161
32138.46153846154,-156
32146.153846153848,-125
32153.846153846156,-135
32161.53846153846,-211
32169.23076923077,-335
32176.923076923078,-373
32184.615384615387,-149
32192.30769230769,425
32200.0,1359
32207.69230769231,2026
32215.384615384617,1423
32223.076923076926,68
32230.76923076923,-525
32238.46153846154,-373
32246.153846153848,-363
32253.846153846156,-451
32261.53846153846,-382
32269.23076923077,-346
32276.923076923078,-375
32284.615384615387,-344
32292.30769230769,-297
32300.0,-299
32307.69230769231,-285
32315.384615384617,-251
32323.076923076926,-268
32330.76923076923,-278
32338.46153846154,-213
32346.153846153848,-187
32353.846153846156,-225
32361.53846153846,-199
32369.23076923077,-159
32376.923076923078,-173
32384.615384615387,-168
32392.30769230769,-135
32400.0,-109
32407.69230769231,-95
32415.384615384617,-104
32423.076923076926,-99
32430.76923076923,-64
32438.46153846154,-42
32446.153846153848,-33
32453.846153846156,-30
32461.53846153846,-59
32469.23076923077,-97
32476.923076923078,-128
32484.615384615387,-171
32492.30769230769,-197
32500.0,-187
32507.69230769231,-190
32515.384615384617,-201
32523.076923076926,-206
32530.76923076923,-204
32538.46153846154,-206
32546.153846153848,-206
32553.846153846156,-197
32561.53846153846,-199
32569.23076923077,-201
32576.923076923078,-192
32584.615384615387,-185
32592.30769230769,-190
32600.0,-190
32607.69230769231,-161
32615.384615384617,-140
32623.076923076926,-156
32630.76923076923,-178
32638.46153846154,-197
32646.153846153848,-201
32653.846153846156,-173
32661.53846153846,-163
32669.23076923077,-163
32676.923076923078,-152
32684.615384615387,-161
32692.30769230769,-168
32700.0,-161
32707.69230769231,-171
32715.384615384617,-182
32723.076923076926,-175
32730.76923076923,-168
32738.46153846154,-159
32746.153846153848,-156
32753.846153846156,-182
32761.53846153846,-178
32769.23076923077,-147
32776.92307692308,-163
32784.61538461538,-187
32792.307692307695,-194
32800.0,-206
32807.69230769231,-192
32815.38461538462,-152
32823.07692307692,-133
32830.769230769234,-118
32838.46153846154,-114
32846.153846153844,-114
32853.846153846156,-111
32861.53846153846,-135
32869.23076923077,-140
32876.92307692308,-128
32884.61538461538,-147
32892.307692307695,-135
32900.0,-104
32907.69230769231,-114
32915.38461538462,-137
32923.07692307692,-130
32930.769230769234,-116
32938.46153846154,-116
32946.153846153844,-104
32953.846153846156,-78
32961.53846153846,-68
32969.23076923077,-95
32976.92307692308,-168
32984.61538461538,-301
32992.307692307695,-335
33000.0,-52
33007.69230769231,643
33015.38461538462,1663
33023.07692307692,2160
33030.769230769234,1254
33038.46153846154,-123
33046.153846153844,-482
33053.846153846156,-218
33061.53846153846,-270
33069.23076923077,-392
33076.92307692308,-304
33084.61538461538,-266
33092.307692307695,-285
33100.0,-240
33107.69230769231,-190
33115.38461538462,-180
33123.07692307692,-175
33130.769230769234,-173
33138.46153846154,-159
33146.153846153844,-135
33153.846153846156,-133
33161.53846153846,-118
33169.23076923077,-99
33176.92307692308,-123
33184.61538461538,-128
33192.307692307695,-61
33200.0,-30
33207.69230769231,-54
33215.38461538462,-47
33223.07692307692,-9
33230.769230769234,28
33238.46153846154,52
33246.153846153844,47
33253.846153846156,30
33261.53846153846,35
33269.23076923077,45
33276.92307692308,19
33284.61538461538,-23
33292.307692307695,-71
33300.0,-130
33307.69230769231,-161
33315.38461538462,-163
33323.07692307692,-182
33330.769230769234,-197
33338.46153846154,-166
33346.153846153844,-156
33353.846153846156,-206
33361.53846153846,-216
33369.23076923077,-159
33376.92307692308,-140
33384.61538461538,-163
33392.307692307695,-152
33400.0,-140
33407.69230769231,-159
33415.38461538462,-173
33423.07692307692,-175
33430.769230769234,-154
33438.46153846154,-123
33446.153846153844,-133
33453.846153846156,-154
33461.53846153846,-154
33469.23076923077,-147
33476.92307692308,-133
33484.61538461538,-154
33492.307692307695,-163
33500.0,-130
33507.69230769231,-152
33515.38461538462,-201
33523.07692307692,-190
33530.769230769234,-114
33538.46153846154,-83
33546.153846153844,-144
33553.846153846156,-185
33561.53846153846,-180
33569.23076923077,-182
33576.92307692308,-173
33584.61538461538,-171
33592.307692307695,-185
33600.0,-128
33607.69230769231,-76
33615.38461538462,-114
33623.07692307692,-144
33630.769230769234,-135
33638.46153846154,-149
33646.153846153844,-163
33653.846153846156,-142
33661.53846153846,-114
33669.23076923077,-125
33676.92307692308,-163
33684.61538461538,-163
33692.307692307695,-144
33700.0,-144
33707.69230769231,-171
33715.38461538462,-218
33723.07692307692,-211
33730.769230769234,-147
33738.46153846154,-149
33746.153846153844,-190
33753.846153846156,-244
33761.53846153846,-392
33769.23076923077,-449
33776.92307692308,-125
33784.61538461538,613
33792.307692307695,1606
33800.0,2079
33807.69230769231,1209
33815.38461538462,-147
33823.07692307692,-575
33830.769230769234,-394
33838.46153846154,-439
33846.153846153844,-537
33853.846153846156,-472
33861.53846153846,-432
33869.23076923077,-427
33876.92307692308,-375
33884.61538461538,-337
33892.307692307695,-344
33900.0,-332
33907.69230769231,-304
33915.38461538462,-294
33923.07692307692,-292
33930.769230769234,-270
33938.46153846154,-259
33946.153846153844,-263
33953.846153846156,-235
33961.53846153846,-190
33969.23076923077,-182
33976.92307692308,-178
33984.61538461538,-140
33992.307692307695,-114
34000.0,-118
34007.69230769231,-116
34015.38461538462,-85
34023.07692307692,-42
34030.769230769234,-26
34038.46153846154,-40
34046.153846153844,-54
34053.846153846156,-76
34061.53846153846,-133
34069.23076923077,-190
34076.92307692308,-199
34084.61538461538,-209
34092.307692307695,-232
34100.0,-204
34107.69230769231,-152
34115.38461538462,-137
34123.07692307692,-159
34130.769230769234,-166
34138.46153846154,-149
34146.153846153844,-140
34153.846153846156,-142
34161.53846153846,-166
34169.23076923077,-180
34176.92307692308,-130
34184.61538461538,-73
34192.307692307695,-80
34200.0,-68
34207.69230769231,-19
34215.38461538462,-49
34223.07692307692,-156
34230.769230769234,-171
34238.46153846154,-85
34246.153846153844,-35
34253.846153846156,-66
34261.53846153846,-116
34269.23076923077,-97
34276.92307692308,-47
34284.61538461538,-59
34292.307692307695,-71
34300.0,-40
34307.69230769231,-47
34315.38461538462,-47
34323.07692307692,9
34330.769230769234,28
34338.46153846154,26
34346.153846153844,61
34353.846153846156,92
34361.53846153846,106
34369.23076923077,116
34376.92307692308,156
34384.61538461538,218
34392.307692307695,225
34400.0,209
34407.69230769231,228
34415.38461538462,268
34423.07692307692,289
34430.769230769234,287
34438.46153846154,273
34446.153846153844,259
34453.846153846156,263
34461.53846153846,254
34469.23076923077,228
34476.92307692308,218
34484.61538461538,209
34492.307692307695,199
34500.0,223
34507.69230769231,266
34515.38461538462,278
34523.07692307692,240
34530.769230769234,211
34538.46153846154,201
34546.153846153844,140
34553.846153846156,14
34561.53846153846,-19
34569.23076923077,209
34576.92307692308,746
34584.61538461538,1620
34592.307692307695,2286
34600.0,1727
34607.69230769231,365
34615.38461538462,-235
34623.07692307692,-26
34630.769230769234,23
34638.46153846154,-73
34646.153846153844,11
34653.846153846156,87
34661.53846153846,35
34669.23076923077,23
34676.92307692308,71
34684.61538461538,71
34692.307692307695,38
34700.0,64
34707.69230769231,140
34715.38461538462,168
34723.07692307692,152
34730.769230769234,168
34738.46153846154,194
34746.153846153844,182
34753.846153846156,175
34761.53846153846,199
34769.23076923077,211
34776.92307692308,216
34784.61538461538,240
34792.307692307695,273
34800.0,299
34807.69230769231,325
34815.38461538462,330
34823.07692307692,316
34830.769230769234,318
34838.46153846154,306
34846.153846153844,261
34853.846153846156,244
34861.53846153846,247
34869.23076923077,204
34876.92307692308,140
34884.61538461538,87
34892.307692307695,73
34900.0,76
34907.69230769231,52
34915.38461538462,49
34923.07692307692,99
34930.769230769234,121
34938.46153846154,83
34946.153846153844,66
34953.846153846156,106
34961.53846153846,133
34969.23076923077,118
34976.92307692308,111
34984.61538461538,109
34992.307692307695,99
35000.0,95
35007.69230769231,99
35015.38461538462,111
35023.07692307692,121
35030.769230769234,116
35038.46153846154,114
35046.153846153844,111
35053.846153846156,99
35061.53846153846,97
35069.23076923077,102
35076.92307692308,106
35084.61538461538,118
35092.307692307695,106
35100.0,68
35107.69230769231,68
35115.38461538462,128
35123.07692307692,147
35130.769230769234,97
35138.46153846154,83
35146.153846153844,118
35153.846153846156,144
35161.53846153846,168
35169.23076923077,182
35176.92307692308,173
35184.61538461538,166
35192.307692307695,178
35200.0,161
35207.69230769231,133
35215.38461538462,163
35223.07692307692,185
35230.769230769234,156
35238.46153846154,152
35246.153846153844,180
35253.846153846156,178
35261.53846153846,154
35269.23076923077,161
35276.92307692308,190
35284.61538461538,201
35292.307692307695,187
35300.0,178
35307.69230769231,171
35315.38461538462,92
35323.07692307692,-66
35330.769230769234,-73
35338.46153846154,294
35346.153846153844,1078
35353.846153846156,2095
35361.53846153846,2423
35369.23076923077,1314
35376.92307692308,-23
35384.61538461538,-235
35392.307692307695,9
35400.0,-87
35407.69230769231,-140
35415.38461538462,-26
35423.07692307692,-42
35430.769230769234,-87
35438.46153846154,4
35446.153846153844,52
35453.846153846156,7
35461.53846153846,9
35469.23076923077,42
35476.92307692308,52
35484.61538461538,64
35492.307692307695,92
35500.0,114
35507.69230769231,99
35515.38461538462,99
35523.07692307692,125
35530.769230769234,135
35538.46153846154,133
35546.153846153844,137
35553.846153846156,147
35561.53846153846,175
35569.23076923077,213
35576.92307692308,230
35584.61538461538,223
35592.307692307695,213
35600.0,201
35607.69230769231,175
35615.38461538462,137
35623.07692307692,87
35630.769230769234,23
35638.46153846154,-21
35646.153846153844,-47
35653.846153846156,-68
35661.53846153846,-83
35669.23076923077,-92
35676.92307692308,-109
35684.61538461538,-125
35692.307692307695,-144
35700.0,-161
35707.69230769231,-166
35715.38461538462,-168
35723.07692307692,-182
35730.769230769234,-199
35738.46153846154,-216
35746.153846153844,-240
35753.846153846156,-259
35761.53846153846,-254
35769.23076923077,-259
35776.92307692308,-282
35784.61538461538,-304
35792.307692307695,-308
35800.0,-301
35807.69230769231,-311
35815.38461538462,-330
35823.07692307692,-335
35830.769230769234,-344
35838.46153846154,-356
35846.153846153844,-361
35853.846153846156,-363
35861.53846153846,-361
35869.23076923077,-358
35876.92307692308,-365
35884.61538461538,-387
35892.307692307695,-396
35900.0,-384
35907.69230769231,-368
35915.38461538462,-349
35923.07692307692,-330
35930.769230769234,-318
35938.46153846154,-316
35946.153846153844,-337
35953.846153846156,-351
35961.53846153846,-351
35969.23076923077,-368
35976.92307692308,-373
35984.61538461538,-358
35992.307692307695,-356
36000.0,-363
36007.69230769231,-387
36015.38461538462,-406
36023.07692307692,-389
36030.769230769234,-358
36038.46153846154,-339
36046.153846153844,-344
36053.846153846156,-358
36061.53846153846,-380
36069.23076923077,-461
36076.92307692308,-594
36084.61538461538,-586
36092.307692307695,-263
36100.0,427
36107.69230769231,1449
36115.38461538462,1988
36123.07692307692,1135
36130.769230769234,-237
36138.46153846154,-715
36146.153846153844,-586
36153.846153846156,-613
36161.53846153846,-667
36169.23076923077,-596
36176.92307692308,-567
36184.61538461538,-582
36192.307692307695,-548
36200.0,-525
36207.69230769231,-532
36215.38461538462,-518
36223.07692307692,-484
36230.769230769234,-468
36238.46153846154,-470
36246.153846153844,-458
36253.846153846156,-437
36261.53846153846,-425
36269.23076923077,-415
36276.92307692308,-403
36284.61538461538,-394
36292.307692307695,-373
36300.0,-349
36307.69230769231,-332
36315.38461538462,-313
36323.07692307692,-282
36330.769230769234,-256
36338.46153846154,-263
36346.153846153844,-263
36353.846153846156,-240
36361.53846153846,-242
36369.23076923077,-282
36376.92307692308,-320
36384.61538461538,-344
36392.307692307695,-368
36400.0,-389
36407.69230769231,-401
36415.38461538462,-411
36423.07692307692,-408
36430.769230769234,-387
36438.46153846154,-382
36446.153846153844,-389
36453.846153846156,-377
36461.53846153846,-363
36469.23076923077,-363
36476.92307692308,-346
36484.61538461538,-320
36492.307692307695,-325
36500.0,-327
36507.69230769231,-325
36515.38461538462,-325
36523.07692307692,-327
36530.769230769234,-335
36538.46153846154,-318
36546.153846153844,-306
36553.846153846156,-335
36561.53846153846,-332
36569.23076923077,-301
36576.92307692308,-304
36584.61538461538,-308
36592.307692307695,-282
36600.0,-292
36607.69230769231,-330
36615.38461538462,-304
36623.07692307692,-256
36630.769230769234,-270
36638.46153846154,-299
36646.153846153844,-285
36653.846153846156,-273
36661.53846153846,-292
36669.23076923077,-304
36676.92307692308,-297
36684.61538461538,-292
36692.307692307695,-275
36700.0,-237
36707.69230769231,-220
36715.38461538462,-244
36723.07692307692,-249
36730.769230769234,-235
36738.46153846154,-256
36746.153846153844,-292
36753.846153846156,-294
36761.53846153846,-287
36769.23076923077,-289
36776.92307692308,-287
36784.61538461538,-287
36792.307692307695,-301
36800.0,-301
36807.69230769231,-282
36815.38461538462,-278
36823.07692307692,-294
36830.769230769234,-289
36838.46153846154,-275
36846.153846153844,-280
36853.846153846156,-335
36861.53846153846,-477
36869.23076923077,-575
36876.92307692308,-384
36884.61538461538,187
36892.307692307695,1173
36900.0,2012
36907.69230769231,1599
36915.38461538462,197
36923.07692307692,-613
36930.769230769234,-541
36938.46153846154,-494
36946.153846153844,-596
36953.846153846156,-541
36961.53846153846,-484
36969.23076923077,-508
36976.92307692308,-484
36984.61538461538,-434
36992.307692307695,-420
37000.0,-403
37007.69230769231,-370
37015.38461538462,-349
37023.07692307692,-344
37030.769230769234,-337
37038.46153846154,-332
37046.153846153844,-318
37053.846153846156,-280
37061.53846153846,-261
37069.23076923077,-266
37076.92307692308,-259
37084.61538461538,-228
37092.307692307695,-209
37100.0,-218
37107.69230769231,-187
37115.38461538462,-125
37123.07692307692,-133
37130.769230769234,-149
37138.46153846154,-133
37146.153846153844,-144
37153.846153846156,-154
37161.53846153846,-152
37169.23076923077,-201
37176.92307692308,-256
37184.61538461538,-256
37192.307692307695,-261
37200.0,-289
37207.69230769231,-278
37215.38461538462,-254
37223.07692307692,-266
37230.769230769234,-278
37238.46153846154,-261
37246.153846153844,-240
37253.846153846156,-237
37261.53846153846,-247
37269.23076923077,-254
37276.92307692308,-244
37284.61538461538,-223
37292.307692307695,-216
37300.0,-216
37307.69230769231,-211
37315.38461538462,-223
37323.07692307692,-213
37330.769230769234,-190
37338.46153846154,-201
37346.153846153844,-218
37353.846153846156,-213
37361.53846153846,-218
37369.23076923077,-223
37376.92307692308,-209
37384.61538461538,-197
37392.307692307695,-192
37400.0,-194
37407.69230769231,-204
37415.38461538462,-204
37423.07692307692,-194
37430.769230769234,-197
37438.46153846154,-192
37446.153846153844,-180
37453.846153846156,-197
37461.53846153846,-220
37469.23076923077,-201
37476.92307692308,-161
37484.61538461538,-173
37492.307692307695,-216
37500.0,-220
37507.69230769231,-197
37515.38461538462,-173
37523.07692307692,-135
37530.769230769234,-123
37538.46153846154,-142
37546.153846153844,-154
37553.846153846156,-159
37561.53846153846,-168
37569.23076923077,-173
37576.92307692308,-175
37584.61538461538,-185
37592.307692307695,-180
37600.0,-171
37607.69230769231,-192
37615.38461538462,-213
37623.07692307692,-190
37630.769230769234,-171
37638.46153846154,-182
37646.153846153844,-187
37653.846153846156,-178
37661.53846153846,-178
37669.23076923077,-185
37676.92307692308,-204
37684.61538461538,-308
37692.307692307695,-441
37700.0,-349
37707.69230769231,116
37715.38461538462,1009
37723.07692307692,2007
37730.769230769234,1974
37738.46153846154,639
37746.153846153844,-434
37753.846153846156,-477
37761.53846153846,-373
37769.23076923077,-499
37776.92307692308,-491
37784.61538461538,-403
37792.307692307695,-413
37800.0,-396
37807.69230769231,-335
37815.38461538462,-325
37823.07692307692,-325
37830.769230769234,-299
37838.46153846154,-280
37846.153846153844,-270
37853.846153846156,-259
37861.53846153846,-251
37869.23076923077,-251
37876.92307692308,-232
37884.61538461538,-204
37892.307692307695,-197
37900.0,-192
37907.69230769231,-161
37915.38461538462,-144
37923.07692307692,-142
37930.769230769234,-116
37938.46153846154,-97
37946.153846153844,-104
37953.846153846156,-99
37961.53846153846,-66
37969.23076923077,-52
37976.92307692308,-66
37984.61538461538,-97
37992.307692307695,-140
38000.0,-182
38007.69230769231,-206
38015.38461538462,-209
38023.07692307692,-209
38030.769230769234,-223
38038.46153846154,-232
38046.153846153844,-230
38053.846153846156,-230
38061.53846153846,-223
38069.23076923077,-206
38076.92307692308,-199
38084.61538461538,-206
38092.307692307695,-209
38100.0,-211
38107.69230769231,-199
38115.38461538462,-185
38123.07692307692,-192
38130.769230769234,-192
38138.46153846154,-178
38146.153846153844,-182
38153.846153846156,-185
38161.53846153846,-173
38169.23076923077,-180
38176.92307692308,-187
38184.61538461538,-180
38192.307692307695,-190
38200.0,-187
38207.69230769231,-163
38215.38461538462,-154
38223.07692307692,-159
38230.769230769234,-171
38238.46153846154,-178
38246.153846153844,-173
38253.846153846156,-168
38261.53846153846,-185
38269.23076923077,-199
38276.92307692308,-180
38284.61538461538,-168
38292.307692307695,-175
38300.0,-166
38307.69230769231,-159
38315.38461538462,-166
38323.07692307692,-159
38330.769230769234,-144
38338.46153846154,-142
38346.153846153844,-156
38353.846153846156,-168
38361.53846153846,-159
38369.23076923077,-161
38376.92307692308,-180
38384.61538461538,-161
38392.307692307695,-116
38400.0,-104
38407.69230769231,-114
38415.38461538462,-109
38423.07692307692,-102
38430.769230769234,-133
38438.46153846154,-175
38446.153846153844,-166
38453.846153846156,-125
38461.53846153846,-128
38469.23076923077,-156
38476.92307692308,-163
38484.61538461538,-159
38492.307692307695,-154
38500.0,-149
38507.69230769231,-159
38515.38461538462,-168
38523.07692307692,-156
38530.769230769234,-142
38538.46153846154,-144
38546.153846153844,-182
38553.846153846156,-297
38561.53846153846,-422
38569.23076923077,-332
38576.92307692308,116
38584.61538461538,979
38592.307692307695,1943
38600.0,1962
38607.69230769231,708
38615.38461538462,-406
38623.07692307692,-518
38630.769230769234,-394
38638.46153846154,-468
38646.153846153844,-463
38653.846153846156,-399
38661.53846153846,-399
38669.23076923077,-384
38676.92307692308,-349
38684.61538461538,-339
38692.307692307695,-330
38700.0,-297
38707.69230769231,-275
38715.38461538462,-268
38723.07692307692,-249
38730.769230769234,-237
38738.46153846154,-242
38746.153846153844,-244
38753.846153846156,-225
38761.53846153846,-192
38769.23076923077,-175
38776.92307692308,-163
38784.61538461538,-135
38792.307692307695,-121
38800.0,-137
38807.69230769231,-137
38815.38461538462,-106
38823.07692307692,-85
38830.769230769234,-85
38838.46153846154,-76
38846.153846153844,-66
38853.846153846156,-80
38861.53846153846,-106
38869.23076923077,-147
38876.92307692308,-187
38884.61538461538,-199
38892.307692307695,-209
38900.0,-232
38907.69230769231,-228
38915.38461538462,-201
38923.07692307692,-201
38930.769230769234,-218
38938.46153846154,-211
38946.153846153844,-199
38953.846153846156,-201
38961.53846153846,-197
38969.23076923077,-187
38976.92307692308,-185
38984.61538461538,-178
38992.307692307695,-166
39000.0,-182
39007.69230769231,-190
39015.38461538462,-166
39023.07692307692,-159
39030.769230769234,-182
39038.46153846154,-185
39046.153846153844,-171
39053.846153846156,-173
39061.53846153846,-171
39069.23076923077,-178
39076.92307692308,-197
39084.61538461538,-182
39092.307692307695,-154
39100.0,-149
39107.69230769231,-168
39115.38461538462,-197
39123.07692307692,-199
39130.769230769234,-163
39138.46153846154,-152
39146.153846153844,-175
39153.846153846156,-178
39161.53846153846,-171
39169.23076923077,-180
39176.92307692308,-180
39184.61538461538,-156
39192.307692307695,-144
39200.0,-152
39207.69230769231,-163
39215.38461538462,-163
39223.07692307692,-154
39230.769230769234,-159
39238.46153846154,-168
39246.153846153844,-178
39253.846153846156,-185
39261.53846153846,-178
39269.23076923077,-168
39276.92307692308,-161
39284.61538461538,-149
39292.307692307695,-135
39300.0,-121
39307.69230769231,-116
39315.38461538462,-140
39323.07692307692,-168
39330.769230769234,-180
39338.46153846154,-190
39346.153846153844,-213
39353.846153846156,-209
39361.53846153846,-180
39369.23076923077,-194
39376.92307692308,-204
39384.61538461538,-159
39392.307692307695,-159
39400.0,-201
39407.69230769231,-197
39415.38461538462,-182
39423.07692307692,-182
39430.769230769234,-192
39438.46153846154,-225
39446.153846153844,-332
39453.846153846156,-437
39461.53846153846,-278
39469.23076923077,278
39476.92307692308,1209
39484.61538461538,1996
39492.307692307695,1625
39500.0,306
39507.69230769231,-496
39515.38461538462,-458
39523.07692307692,-399
39530.769230769234,-491
39538.46153846154,-456
39546.153846153844,-387
39553.846153846156,-392
39561.53846153846,-384
39569.23076923077,-358
39576.92307692308,-349
39584.61538461538,-330
39592.307692307695,-299
39600.0,-282
39607.69230769231,-285
39615.38461538462,-273
39623.07692307692,-256
39630.769230769234,-263
39638.46153846154,-249
39646.153846153844,-211
39653.846153846156,-206
39661.53846153846,-204
39669.23076923077,-175
39676.92307692308,-144
39684.61538461538,-121
39692.307692307695,-118
39700.0,-109
39707.69230769231,-85
39715.38461538462,-73
39723.07692307692,-68
39730.769230769234,-57
39738.46153846154,-71
39746.153846153844,-109
39753.846153846156,-140
39761.53846153846,-154
39769.23076923077,-175
39776.92307692308,-185
39784.61538461538,-206
39792.307692307695,-242
39800.0,-235
39807.69230769231,-209
39815.38461538462,-228
39823.07692307692,-232
39830.769230769234,-192
39838.46153846154,-192
39846.153846153844,-211
39853.846153846156,-190
39861.53846153846,-173
39869.23076923077,-171
39876.92307692308,-163
39884.61538461538,-175
39892.307692307695,-199
39900.0,-194
39907.69230769231,-175
39915.38461538462,-163
39923.07692307692,-187
39930.769230769234,-223
39938.46153846154,-190
39946.153846153844,-135
39953.846153846156,-161
39961.53846153846,-199
39969.23076923077,-182
39976.92307692308,-175
39984.61538461538,-187
39992.307692307695,-175
40000.0,-163
40007.69230769231,-173
40015.38461538462,-163
40023.07692307692,-149
40030.769230769234,-171
40038.46153846154,-192
40046.153846153844,-166
40053.846153846156,-152
40061.53846153846,-180
40069.23076923077,-171
40076.92307692308,-130
40084.61538461538,-149
40092.307692307695,-180
40100.0,-173
40107.69230769231,-182
40115.38461538462,-199
40123.07692307692,-178
40130.769230769234,-137
40138.46153846154,-116
40146.153846153844,-128
40153.846153846156,-128
40161.53846153846,-111
40169.23076923077,-128
40176.92307692308,-166
40184.61538461538,-166
40192.307692307695,-147
40200.0,-147
40207.69230769231,-156
40215.38461538462,-149
40223.07692307692,-149
40230.769230769234,-178
40238.46153846154,-182
40246.153846153844,-140
40253.846153846156,-142
40261.53846153846,-180
40269.23076923077,-163
40276.92307692308,-149
40284.61538461538,-263
40292.307692307695,-432
40300.0,-370
40307.69230769231,61
40315.38461538462,888
40323.07692307692,1853
40330.769230769234,1969
40338.46153846154,812
40346.153846153844,-330
40353.846153846156,-499
40361.53846153846,-356
40369.23076923077,-437
40376.92307692308,-461
40384.61538461538,-384
40392.307692307695,-387
40400.0,-380
40407.69230769231,-325
40415.38461538462,-297
40423.07692307692,-289
40430.769230769234,-280
40438.46153846154,-266
40446.153846153844,-254
40453.846153846156,-256
40461.53846153846,-247
40469.23076923077,-225
40476.92307692308,-209
40484.61538461538,-194
40492.307692307695,-180
40500.0,-168
40507.69230769231,-152
40515.38461538462,-125
40523.07692307692,-104
40530.769230769234,-99
40538.46153846154,-78
40546.153846153844,-40
40553.846153846156,-26
40561.53846153846,-38
40569.23076923077,-38
40576.92307692308,-38
40584.61538461538,-71
40592.307692307695,-109
40600.0,-142
40607.69230769231,-185
40615.38461538462,-187
40623.07692307692,-180
40630.769230769234,-220
40638.46153846154,-240
40646.153846153844,-220
40653.846153846156,-216
40661.53846153846,-197
40669.23076923077,-178
40676.92307692308,-194
40684.61538461538,-190
40692.307692307695,-171
40700.0,-175
40707.69230769231,-168
40715.38461538462,-152
40723.07692307692,-147
40730.769230769234,-140
40738.46153846154,-144
40746.153846153844,-156
40753.846153846156,-154
40761.53846153846,-149
40769.23076923077,-154
40776.92307692308,-152
40784.61538461538,-149
40792.307692307695,-159
40800.0,-144
40807.69230769231,-111
40815.38461538462,-118
40823.07692307692,-137
40830.769230769234,-140
40838.46153846154,-154
40846.153846153844,-159
40853.846153846156,-135
40861.53846153846,-121
40869.23076923077,-137
40876.92307692308,-147
40884.61538461538,-144
40892.307692307695,-154
40900.0,-154
40907.69230769231,-154
40915.38461538462,-154
40923.07692307692,-106
40930.769230769234,-68
40938.46153846154,-85
40946.153846153844,-97
40953.846153846156,-116
40961.53846153846,-135
40969.23076923077,-125
40976.92307692308,-128
40984.61538461538,-137
40992.307692307695,-140
41000.0,-140
41007.69230769231,-144
41015.38461538462,-144
41023.07692307692,-123
41030.769230769234,-128
41038.46153846154,-144
41046.153846153844,-140
41053.846153846156,-171
41061.53846153846,-192
41069.23076923077,-168
41076.92307692308,-232
41084.61538461538,-411
41092.307692307695,-418
41100.0,-26
41107.69230769231,739
41115.38461538462,1710
41123.07692307692,2084
41130.769230769234,1104
41138.46153846154,-213
