time,ppg
1753718711385,79.152123
1753718711415,73.817284
1753718711456,69.918619
1753718711486,67.431337
1753718711526,62.583871
1753718711546,70.445966
1753718711587,67.380321
1753718711617,65.954108
1753718711658,60.723651
1753718711690,63.036576
1753718711723,62.586208
1753718711749,62.266942
1753718711780,60.663116
1753718711822,59.93817
1753718711851,57.561202
1753718711896,56.313003
1753718711922,53.333934
1753718711957,52.77591
1753718711986,52.43305
1753718712015,52.61546
1753718712057,51.923014
1753718712088,54.668598
1753718712118,55.288882
1753718712148,55.642485
1753718712191,55.961732
1753718712219,56.256636
1753718712260,56.293335
1753718712290,55.920175
1753718712321,55.612784
1753718712350,55.345367
1753718712380,54.858352
1753718712421,54.25939
1753718712451,54.227156
1753718712492,54.280861
1753718712522,54.319104
1753718712553,54.326649
1753718712583,54.504203
1753718712613,54.625395
1753718712654,54.663696
1753718712684,54.786242
1753718712727,54.913554
1753718712747,54.977754
1753718712787,54.981953
1753718712817,54.78548
1753718712858,54.424632
1753718712888,53.969857
1753718712930,53.517484
1753718712949,53.287906
1753718712979,53.187247
1753718713019,53.167065
1753718713050,53.615453
1753718713090,54.225841
1753718713121,54.378121
1753718713162,54.314983
1753718713180,54.09586
1753718713221,53.740734
1753718713251,53.408004
1753718713279,53.242026
1753718713317,53.232892
1753718713349,53.64809
1753718713389,55.504528
1753718713420,56.942767
1753718713461,57.582842
1753718713491,57.816158
1753718713520,57.869127
1753718713550,57.980911
1753718713581,58.097097
1753718713621,58.370849
1753718713652,58.519567
1753718713685,58.492204
1753718713713,58.277476
1753718713754,58.117123
1753718713785,58.097598
1753718713827,58.093139
1753718713860,58.121531
1753718713881,58.140658
1753718713927,58.112182
1753718713958,58.201056
1753718713998,58.237235
1753718714025,58.27409
1753718714068,58.336259
1753718714100,57.772212
1753718714122,56.759614
1753718714178,56.723735
1753718714191,57.294768
1753718714221,57.548011
1753718714252,57.820891
1753718714295,58.015085
1753718714332,58.322092
1753718714368,58.494873
1753718714385,58.562777
1753718714432,58.777167
1753718714460,58.291968
1753718714505,58.227287
1753718714530,59.017663
1753718714560,58.908046
1753718714599,56.488532
1753718714630,58.613578
1753718714664,60.106785
1753718714697,60.211629
1753718714733,59.552653
1753718714753,62.066485
1753718714801,65.170854
1753718714831,66.949576
1753718714864,69.50113
1753718714895,73.299494
1753718714930,77.728885
1753718714967,79.705167
1753718714992,88.137944
1753718715030,81.274605
1753718715069,71.979661
1753718715104,63.913242
1753718715125,60.935514
1753718715165,54.241532
1753718715198,50.516872
1753718715223,48.823261
1753718715261,41.719432
1753718715296,41.877968
1753718715333,44.025274
1753718715363,46.859543
1753718715400,50.247189
1753718715417,53.582771
1753718715461,55.386936
1753718715502,53.979765
1753718715534,53.021777
1753718715564,50.427496
1753718715597,48.807277
1753718715633,49.749119
1753718715664,56.244923
1753718715707,58.064942
1753718715726,58.228042
1753718715763,59.838983
1753718715800,60.71018
1753718715828,60.404078
1753718715859,59.070554
1753718715895,58.311441
1753718715932,60.482523
1753718715965,59.990749
1753718715998,60.720981
1753718716025,63.996654
1753718716068,69.758377
1753718716096,76.509502
1753718716131,81.741639
1753718716168,77.468213
1753718716189,82.375484
1753718716223,82.713703
1753718716259,81.767088
1753718716304,80.93442
1753718716332,73.605551
1753718716362,70.922428
1753718716395,70.108145
1753718716429,65.722134
1753718716468,67.090131
1753718716492,66.548747
1753718716529,64.442321
1753718716564,60.313134
1753718716598,45.221271
1753718716624,41.096146
1753718716666,39.858391
1753718716689,42.822902
1753718716727,43.904355
1753718716762,45.137813
1753718716791,44.567946
1753718716833,43.661111
1753718716866,43.603682
1753718716903,44.788482
1753718716925,46.126153
1753718716964,46.763547
1753718716990,48.446351
1753718717034,50.639412
1753718717070,55.438382
1753718717094,62.777844
1753718717140,65.799003
1753718717165,64.01054
1753718717197,58.982461
1753718717220,50.785637
1753718717265,50.112611
1753718717302,38.87054
1753718717326,31.948515
1753718717363,28.466917
1753718717393,24.379918
1753718717435,24.852343
1753718717465,26.739764
1753718717501,28.380738
1753718717527,31.358179
1753718717569,33.197163
1753718717604,34.502744
1753718717628,36.704575
1753718717663,39.012546
1753718717694,40.41277
1753718717733,41.897929
1753718717756,41.917304
1753718717798,41.938671
1753718717819,42.331447
1753718717874,42.634835
1753718717899,41.686919
1753718717941,43.12502
1753718717962,45.700695
1753718717996,47.3037
1753718718030,46.234162
1753718718059,47.21299
1753718718102,47.234162
1753718718124,47.119825
1753718718164,47.069994
1753718718197,48.440166
1753718718242,47.30812
1753718718257,48.623611
1753718718304,48.692036
1753718718330,48.602296
1753718718364,48.540967
1753718718403,47.300236
1753718718430,47.205555
1753718718468,47.152534
1753718718491,47.153146
1753718718536,47.060065
1753718718554,46.987884
1753718718601,46.970898
1753718718628,46.902037
1753718718660,48.111296
1753718718689,49.427047
1753718718725,48.795266
1753718718766,48.939739
1753718718796,50.41915
1753718718840,49.088692
1753718718858,49.024831
1753718718900,50.240457
1753718718925,49.973209
1753718718958,49.832733
1753718719009,49.86052
1753718719029,49.740181
1753718719061,47.250353
1753718719088,49.757713
1753718719134,50.706951
1753718719164,49.389241
1753718719195,50.959466
1753718719224,49.719848
1753718719258,49.811132
1753718719305,49.924192
1753718719331,47.286584
1753718719356,49.58697
1753718719396,49.585844
1753718719443,49.545264
1753718719462,51.065059
1753718719501,49.753716
1753718719533,49.690421
1753718719580,49.584887
1753718719595,49.555713
1753718719630,49.026341
1753718719674,48.13517
1753718719687,48.172032
1753718719731,48.148679
1753718719756,48.119714
1753718719810,48.104975
1753718719833,48.107494
1753718719864,49.983724
1753718719898,51.318687
1753718719920,51.562627
1753718719964,52.97567
1753718719998,51.525661
1753718720029,51.468193
1753718720067,48.344547
1753718720100,48.343095
1753718720133,48.4704
1753718720162,48.543955
1753718720195,49.969616
1753718720223,48.812512
1753718720268,48.913203
1753718720285,48.995391
1753718720332,48.965228
1753718720362,48.945338
1753718720406,48.970416
1753718720430,48.834198
1753718720464,48.606404
1753718720494,48.457282
1753718720530,48.627602
1753718720570,48.850904
1753718720594,48.877271
1753718720628,48.836627
1753718720660,52.40176
1753718720703,62.531885
1753718720731,69.738267
1753718720768,74.556377
1753718720794,86.791496
1753718720838,105.372672
1753718720859,123.273042
1753718720898,111.892193
1753718720937,103.579581
1753718720962,96.693038
1753718720997,88.259963
1753718721021,85.156264
1753718721061,81.394592
1753718721085,78.68311
1753718721132,79.110463
1753718721168,76.259006
1753718721191,73.060026
1753718721239,71.486904
1753718721260,67.91041
1753718721296,66.773358
1753718721324,64.76714
1753718721373,63.817909
1753718721402,61.58223
1753718721428,61.579926
1753718721458,60.864185
1753718721488,60.231128
1753718721531,58.026758
1753718721556,57.714204
1753718721599,57.424358
1753718721625,57.347659
1753718721667,57.049069
1753718721697,56.806906
1753718721741,56.709002
1753718721770,56.561872
1753718721793,56.475804
1753718721827,56.396793
1753718721860,56.318811
1753718721907,56.28506
1753718721923,56.237886
1753718721968,56.160229
1753718721999,56.200854
1753718722026,56.235581
1753718722065,56.308615
1753718722091,56.344879
1753718722130,56.704751
1753718722156,56.8291
1753718722202,56.913411
1753718722233,56.906458
1753718722253,56.901653
1753718722297,56.941888
1753718722334,56.939921
1753718722363,56.921575
1753718722411,56.961139
1753718722423,56.885286
1753718722460,56.851913
1753718722498,56.537653
1753718722526,56.722069
1753718722573,56.418369
1753718722595,56.278511
1753718722634,56.244357
1753718722658,56.231675
1753718722703,56.186837
1753718722733,56.169474
1753718722766,56.448401
1753718722797,56.475374
1753718722831,56.293146
1753718722866,56.355517
1753718722895,56.371943
1753718722928,56.325634
1753718722960,56.321252
1753718723001,56.335321
1753718723026,56.360198
1753718723062,56.354078
1753718723090,56.369729
1753718723118,56.340862
1753718723163,56.342157
1753718723190,56.33232
1753718723237,56.311877
1753718723260,56.241323
1753718723297,56.120697
1753718723328,56.023763
1753718723364,55.991465
1753718723400,55.990579
1753718723429,56.239683
1753718723455,56.044733
1753718723496,56.295139
1753718723534,56.286545
1753718723564,56.287736
1753718723599,55.995195
1753718723621,56.197612
1753718723671,56.165242
1753718723693,56.236538
1753718723735,56.224806
1753718723760,56.241597
1753718723793,56.211121
1753718723842,56.188973
1753718723868,56.215379
1753718723893,56.25965
1753718723926,56.283628
1753718723968,56.222547
1753718723994,56.126973
1753718724030,56.036367
1753718724063,56.070228
1753718724095,56.241948
1753718724135,56.637192
1753718724155,56.65602
1753718724204,56.738208
1753718724245,56.769452
1753718724263,56.301512
1753718724293,56.319651
1753718724320,56.357008
1753718724362,56.399449
1753718724397,56.328531
1753718724430,56.344644
1753718724463,56.391585
1753718724500,56.259383
1753718724527,56.250522
1753718724562,56.252319
1753718724593,56.245262
1753718724635,56.202358
1753718724663,56.090639
1753718724694,55.795975
1753718724738,55.974974
1753718724763,56.03461
1753718724791,56.023854
1753718724830,56.136134
1753718724872,56.089851
1753718724890,56.123751
1753718724932,56.170522
1753718724961,56.153276
1753718724996,56.008841
1753718725032,55.993483
1753718725061,56.126941
1753718725106,56.029069
1753718725123,56.018457
1753718725168,56.054805
1753718725197,56.098842
1753718725235,56.107045
1753718725266,56.153868
1753718725283,56.146589
1753718725327,56.121296
1753718725358,56.080801
1753718725406,55.71951
1753718725429,55.856405
1753718725461,55.829029
1753718725492,56.021361
1753718725535,56.075157
1753718725567,56.089812
1753718725596,56.178608
1753718725630,56.169383
1753718725660,56.227319
1753718725709,56.086784
1753718725729,56.075625
1753718725765,56.147364
1753718725794,56.193289
1753718725843,56.193556
1753718725872,56.199767
1753718725887,56.233784
1753718725931,56.262723
1753718725963,56.328023
1753718725993,56.339755
1753718726032,56.064004
1753718726071,56.065606
1753718726090,56.057494
1753718726133,56.037819
1753718726162,55.987402
1753718726209,55.867545
1753718726231,55.755773
1753718726251,55.713722
1753718726302,55.980085
1753718726332,56.018802
1753718726363,56.169376
1753718726394,56.203869
1753718726441,56.227169
1753718726462,56.241128
1753718726498,56.2587
1753718726530,56.116147
1753718726559,56.1292
1753718726595,56.187469
1753718726619,56.224578
1753718726664,56.277365
1753718726693,56.281363
1753718726737,56.241727
1753718726753,56.309481
1753718726799,56.286057
1753718726824,56.246193
1753718726864,56.247925
1753718726891,56.211316
1753718726925,56.095072
1753718726967,55.979375
1753718726997,55.895312
1753718727022,55.906647
1753718727057,56.020065
1753718727099,56.095111
1753718727132,56.105307
1753718727156,56.158009
1753718727201,56.170841
1753718727229,56.045293
1753718727265,56.025254
1753718727294,55.950879
1753718727340,55.936009
1753718727357,56.006374
1753718727397,55.997663
1753718727431,56.076947
1753718727462,56.038757
1753718727491,55.887975
1753718727527,55.904934
1753718727570,55.9061
1753718727595,55.854289
1753718727629,55.787167
1753718727663,55.680616
1753718727705,55.597387
1753718727726,55.558383
1753718727772,55.804445
1753718727793,55.899394
1753718727830,56.028353
1753718727859,56.026823
1753718727893,56.06642
1753718727932,56.064108
1753718727966,56.067084
1753718728002,56.057754
1753718728024,56.053145
1753718728077,56.048789
1753718728093,56.037214
1753718728129,56.084525
1753718728163,56.095079
1753718728197,56.105183
1753718728223,55.980846
1753718728258,55.999362
1753718728305,55.970781
1753718728327,55.942259
1753718728375,55.839797
1753718728393,55.789282
1753718728423,55.919882
1753718728467,56.306636
1753718728495,56.361663
1753718728537,56.395276
1753718728556,56.400439
1753718728600,56.423102
1753718728631,56.109076
1753718728675,56.123757
1753718728699,56.135183
1753718728732,56.519333
1753718728765,56.544906
1753718728790,56.203725
1753718728836,56.591026
1753718728864,56.20685
1753718728893,56.188823
1753718728926,56.187085
1753718728967,56.211004
1753718728996,56.099141
1753718729044,56.031048
1753718729062,55.80632
1753718729090,55.91166
1753718729133,56.27978
1753718729165,56.299982
1753718729209,56.337971
1753718729226,56.339045
1753718729276,56.355445
1753718729295,56.315132
1753718729334,56.323583
1753718729360,56.333394
1753718729391,56.4193
1753718729436,56.415992
1753718729455,56.117052
1753718729495,56.541377
1753718729523,56.183699
1753718729572,56.244617
1753718729592,56.647895
1753718729634,56.261239
1753718729666,56.146166
1753718729696,55.953287
1753718729728,55.922714
1753718729767,56.235672
1753718729797,56.246317
1753718729822,56.263094
1753718729868,56.388355
1753718729890,56.472737
1753718729937,56.516012
1753718729961,56.597849
1753718730003,56.75606
1753718730026,56.401845
1753718730060,56.55182
1753718730100,56.414
1753718730126,56.447301
1753718730162,56.502783
1753718730193,56.324123
1753718730239,56.351519
1753718730263,56.402659
1753718730309,56.282704
1753718730328,56.142241
1753718730360,55.990592
1753718730400,55.892975
1753718730430,55.881314
1753718730468,55.921542
1753718730490,55.993255
1753718730535,55.964075
1753718730560,56.020977
1753718730592,56.138022
1753718730625,56.230177
1753718730661,56.289768
1753718730695,56.268615
1753718730725,56.263758
1753718730766,56.345784
1753718730796,56.563409
1753718730833,56.832453
1753718730855,56.895051
1753718730895,56.785142
1753718730928,56.671977
1753718730961,56.555323
1753718730997,56.575121
1753718731027,56.437893
1753718731064,56.277482
1753718731095,56.043737
1753718731141,56.325341
1753718731164,56.57475
1753718731198,56.706391
1753718731230,56.785116
1753718731277,56.669783
1753718731292,56.539815
1753718731331,56.541494
1753718731358,56.955696
1753718731395,56.978906
1753718731434,57.017604
1753718731458,57.081823
1753718731506,56.97011
1753718731526,56.856562
1753718731567,56.701658
1753718731597,56.371357
1753718731634,55.703247
1753718731671,55.444326
1753718731698,55.378622
1753718731724,55.538864
1753718731761,55.437418
1753718731795,55.485719
1753718731824,55.57779
1753718731867,55.722036
1753718731896,56.253862
1753718731917,56.343134
1753718731956,56.556162
1753718731988,57.65936
1753718732029,57.469892
1753718732060,57.552334
1753718732105,57.659542
1753718732130,57.173308
1753718732160,57.868196
1753718732190,57.544424
1753718732221,57.781978
1753718732265,57.85371
1753718732297,57.882955
1753718732329,58.392463
1753718732360,58.318524
1753718732401,57.840025
1753718732430,57.830513
1753718732462,57.846412
1753718732493,57.822108
1753718732540,57.744666
1753718732566,57.774504
1753718732594,57.71449
1753718732629,57.715246
1753718732655,57.711287
1753718732701,57.704894
1753718732737,57.767538
1753718732763,57.739451
1753718732798,57.716001
1753718732837,57.613487
1753718732863,57.551488
1753718732889,57.508272
1753718732932,57.492419
1753718732966,57.495752
1753718733003,58.030215
1753718733021,57.998633
1753718733066,58.061914
1753718733088,58.046159
1753718733133,57.927278
1753718733167,57.434248
1753718733196,57.369065
1753718733229,57.8772
1753718733262,57.874322
1753718733298,57.91123
1753718733330,58.042409
1753718733373,58.056667
1753718733392,58.030775
1753718733433,58.006432
1753718733464,57.999603
1753718733490,57.34288
1753718733533,57.249624
1753718733560,57.104643
1753718733599,57.513818
1753718733629,57.481956
1753718733664,57.464026
1753718733695,58.047058
1753718733736,58.009935
1753718733762,57.536449
1753718733797,57.557152
1753718733824,57.524235
1753718733866,57.519899
1753718733908,57.477549
1753718733922,57.479508
1753718733963,57.370465
1753718733997,57.32051
1753718734029,57.254683
1753718734064,57.210906
1753718734104,57.072839
1753718734135,56.86345
1753718734155,56.696463
1753718734201,56.732655
1753718734225,56.813287
1753718734265,56.757902
1753718734295,56.836197
1753718734338,56.967845
1753718734362,56.861959
1753718734400,57.351578
1753718734434,57.384651
1753718734463,56.908411
1753718734491,56.894029
1753718734531,56.766522
1753718734580,56.72589
1753718734593,56.764041
1753718734638,56.883554
1753718734664,57.012513
1753718734708,57.12976
1753718734739,56.646163
1753718734765,56.741073
1753718734796,56.742576
1753718734829,57.281571
1753718734874,56.737765
1753718734893,57.18118
1753718734930,57.137332
1753718734961,57.179988
1753718735003,57.210288
1753718735037,57.196714
1753718735062,57.14351
1753718735092,57.116472
1753718735121,57.109929
1753718735165,57.12696
1753718735199,57.092989
1753718735226,56.522217
1753718735257,56.508851
1753718735306,56.524398
1753718735331,56.586215
1753718735368,56.579457
1753718735397,56.549164
1753718735423,56.526013
1753718735474,56.442028
1753718735490,56.412796
1753718735531,56.367548
1753718735566,56.834309
1753718735600,56.783482
1753718735634,56.827336
1753718735677,57.350113
1753718735690,56.821998
1753718735730,56.827082
1753718735774,56.780611
1753718735797,56.78298
1753718735833,56.779458
1753718735861,56.791555
1753718735907,56.800005
1753718735939,56.783482
1753718735962,56.787101
1753718735996,56.797967
1753718736031,56.861386
1753718736069,56.875553
1753718736092,56.785454
1753718736127,56.749315
1753718736160,56.555804
1753718736202,56.53169
1753718736231,56.391435
1753718736268,56.491097
1753718736297,57.04444
1753718736328,57.113022
1753718736375,57.056159
1753718736396,57.060345
1753718736430,56.513721
1753718736463,56.454918
1753718736498,56.438857
1753718736531,56.437861
1753718736562,56.451683
1753718736593,56.468382
1753718736629,56.454228
1753718736664,56.422958
1753718736698,56.439508
1753718736726,56.423414
1753718736755,56.359045
1753718736799,56.264976
1753718736828,56.207085
1753718736874,56.103002
1753718736895,56.089922
1753718736931,56.622426
1753718736967,56.667511
1753718736990,56.702075
1753718737040,56.71421
1753718737063,56.738091
1753718737103,56.745734
1753718737122,56.202547
1753718737169,56.72979
1753718737196,56.158165
1753718737242,56.220047
1753718737259,56.176284
1753718737298,56.178699
1753718737327,56.247046
1753718737364,56.260093
1753718737407,56.262847
1753718737428,56.193888
1753718737463,56.140593
1753718737499,55.999395
1753718737542,55.970918
1753718737563,55.956341
1753718737586,56.656463
1753718737628,56.655467
1753718737666,56.691372
1753718737706,56.108282
1753718737722,56.155092
1753718737764,56.152761
1753718737792,56.141023
1753718737836,56.15879
1753718737860,56.198562
1753718737912,56.263368
1753718737927,56.281141
1753718737967,56.290588
1753718738006,56.289748
1753718738031,56.253355
1753718738067,56.184975
1753718738095,56.10088
1753718738137,56.042142
1753718738165,55.931126
1753718738195,56.483844
1753718738226,56.53611
1753718738252,56.542106
1753718738300,56.593825
1753718738325,56.683266
1753718738362,56.626293
1753718738399,56.613402
1753718738426,56.030209
1753718738464,56.114682
1753718738500,56.138549
1753718738530,56.082429
1753718738560,56.093171
1753718738596,56.157898
1753718738629,56.166388
1753718738670,56.210542
1753718738691,56.168706
1753718738730,56.081329
1753718738763,55.9722
1753718738803,55.866646
1753718738835,56.51305
1753718738866,56.463844
1753718738895,56.501566
1753718738925,56.56462
1753718738970,56.561833
1753718738997,56.554079
1753718739026,56.601495
1753718739064,56.535843
1753718739105,56.007975
1753718739133,56.53667
1753718739162,56.030827
1753718739193,56.556905
1753718739226,55.968385
1753718739272,56.011777
1753718739303,56.02375
1753718739326,55.997487
1753718739362,55.964088
1753718739393,55.864094
1753718739425,55.771913
1753718739463,55.684705
1753718739497,55.717706
1753718739526,56.245926
1753718739567,56.291714
1753718739596,56.314846
1753718739629,56.401083
1753718739661,56.41958
1753718739705,56.446012
1753718739730,56.425074
1753718739766,56.409404
1753718739793,56.497249
1753718739831,56.465635
1753718739872,56.445797
1753718739900,56.505257
1753718739925,56.463727
1753718739960,55.966692
1753718740004,55.948235
1753718740025,55.897031
1753718740066,55.767876
1753718740095,55.669614
1753718740128,55.600915
1753718740169,56.132638
1753718740205,56.076472
1753718740226,56.168901
1753718740263,56.531117
1753718740299,56.555297
1753718740347,56.199904
1753718740361,56.549743
1753718740398,56.13338
1753718740427,56.123725
1753718740469,56.205405
1753718740486,56.157644
1753718740533,56.225737
1753718740561,56.226948
1753718740607,56.296773
1753718740638,56.294813
1753718740661,55.777948
1753718740694,56.257677
1753718740737,55.606065
1753718740764,55.523578
1753718740794,56.034121
1753718740827,56.085639
1753718740854,56.085658
1753718740899,56.112657
1753718740926,56.219774
1753718740973,56.24911
1753718740990,56.194663
1753718741034,56.24564
1753718741060,56.259273
1753718741095,56.298784
1753718741139,56.33329
1753718741161,56.352965
1753718741197,56.376741
1753718741225,56.440185
1753718741268,56.491514
1753718741303,56.520212
1753718741326,55.848437
1753718741358,55.722785
1753718741393,56.181713
1753718741431,56.222358
1753718741463,56.121687
1753718741505,56.216473
1753718741523,56.562686
1753718741567,56.274396
1753718741597,56.660961
1753718741643,56.322196
1753718741658,56.318954
1753718741696,56.238576
1753718741727,56.289579
1753718741759,56.252332
1753718741807,56.249754
1753718741823,56.314787
1753718741867,56.318928
1753718741898,56.341552
1753718741930,56.330966
1753718741964,56.324279
1753718742000,56.131609
1753718742028,56.000898
1753718742061,55.967721
1753718742105,55.975716
1753718742123,56.352398
1753718742163,56.385966
1753718742193,56.426031
1753718742240,56.465374
1753718742268,56.491657
1753718742306,56.487139
1753718742324,56.158126
1753718742358,56.172195
1753718742402,56.201635
1753718742431,56.439658
1753718742464,56.444632
1753718742496,56.460114
1753718742532,56.160685
1753718742559,56.209559
1753718742607,56.22021
1753718742635,56.255828
1753718742662,56.266792
1753718742699,56.142169
1753718742729,56.011341
1753718742756,55.898534
1753718742798,55.886653
1753718742834,55.958886
1753718742864,56.321207
1753718742894,56.367463
1753718742925,56.429612
1753718742962,56.457757
1753718743002,56.476234
1753718743029,56.527132
1753718743061,56.122696
1753718743098,56.548845
1753718743134,56.520348
1753718743162,56.599333
1753718743200,56.633416
1753718743235,56.313641
1753718743274,56.678735
1753718743306,56.261701
1753718743328,56.270308
1753718743362,56.324983
1753718743399,56.327723
1753718743439,56.333707
1753718743464,56.341832
1753718743499,56.333531
1753718743522,55.956425
1753718743565,55.8169
1753718743598,55.923639
1753718743633,55.905598
1753718743659,56.31868
1753718743694,56.374254
1753718743742,56.959687
1753718743773,56.415999
1753718743794,56.496768
1753718743826,56.471663
1753718743869,56.489717
1753718743900,56.129578
1753718743927,56.459241
1753718743966,56.476598
1753718743986,56.174226
1753718744034,56.185379
1753718744063,56.15034
1753718744101,56.151726
1753718744131,56.203471
1753718744161,56.176121
1753718744197,56.242938
1753718744222,56.218849
1753718744269,56.217846
1753718744299,56.204487
1753718744333,56.201147
1753718744357,55.979818
1753718744402,55.31258
1753718744431,55.852948
1753718744466,55.803293
1753718744499,56.177052
1753718744526,56.231616
1753718744568,56.290712
1753718744589,56.341148
1753718744630,56.357626
1753718744665,56.392848
1753718744700,56.364189
1753718744729,56.088536
1753718744765,56.477464
1753718744795,56.47208
1753718744837,56.18631
1753718744863,56.197449
1753718744899,56.157189
1753718744925,56.239259
1753718744961,56.25993
1753718745002,56.279774
1753718745028,56.267931
1753718745065,56.189129
1753718745095,56.038685
1753718745145,55.943815
1753718745158,55.897975
1753718745197,56.325894
1753718745230,56.384124
1753718745266,56.412815
1753718745306,56.463766
1753718745328,56.499085
1753718745369,56.511507
1753718745399,56.498096
1753718745434,56.491273
1753718745461,56.514046
1753718745486,56.573936
1753718745534,56.593194
1753718745566,56.26036
1753718745608,56.192762
1753718745635,56.284182
1753718745666,56.297469
1753718745702,56.171961
1753718745741,56.053555
1753718745755,55.966699
1753718745796,55.834725
1753718745832,56.176212
1753718745863,56.201206
1753718745906,56.242801
1753718745927,56.269194
1753718745969,56.337613
1753718745994,56.36898
1753718746029,56.771307
1753718746061,56.340647
1753718746103,56.341767
1753718746134,56.420003
1753718746161,56.386487
1753718746204,56.40594
1753718746232,56.425367
1753718746269,56.446325
1753718746297,56.434261
1753718746340,56.424658
1753718746362,56.362027
1753718746408,56.22161
1753718746423,56.135463
1753718746467,56.062312
1753718746495,56.426077
1753718746531,56.446364
1753718746569,56.598344
1753718746591,56.649666
1753718746636,56.805975
1753718746667,56.82996
1753718746704,56.835279
1753718746730,56.904133
1753718746765,56.646879
1753718746799,56.341688
1753718746832,56.696476
1753718746867,56.422268
1753718746894,56.482477
1753718746928,56.52111
1753718746961,56.566521
1753718747003,56.575603
1753718747032,56.571918
1753718747061,56.13672
1753718747095,55.966614
1753718747126,55.795747
1753718747161,56.157885
1753718747195,56.135535
1753718747237,56.484456
1753718747264,56.502874
1753718747295,56.550603
1753718747328,56.566234
1753718747377,56.507315
1753718747401,56.180183
1753718747425,56.198471
1753718747466,56.173165
1753718747499,56.189318
1753718747527,56.201492
1753718747566,56.2048
1753718747602,56.5507
1753718747629,56.261434
1753718747663,56.312893
1753718747693,56.333746
1753718747729,56.257052
1753718747764,56.106654
1753718747798,55.97375
1753718747827,55.859901
1753718747860,56.230724
1753718747897,56.354781
1753718747931,56.386096
1753718747973,56.436305
1753718747993,56.43566
1753718748036,56.502497
1753718748064,56.509443
1753718748098,56.499847
1753718748140,56.521813
1753718748160,56.553942
1753718748200,56.482373
1753718748225,56.488916
1753718748268,56.556495
1753718748300,56.599978
1753718748330,56.243114
1753718748370,56.56029
1753718748398,56.148054
1753718748431,55.978789
1753718748460,55.87996
1753718748497,56.142976
1753718748534,56.332509
1753718748567,56.36788
1753718748599,56.501338
1753718748640,56.568526
1753718748670,56.481006
1753718748698,56.617654
1753718748736,56.518454
1753718748764,56.629041
1753718748800,56.659985
1753718748828,56.682557
1753718748867,56.58725
1753718748899,56.645011
1753718748932,56.609294
1753718748960,56.638696
1753718748995,56.254709
1753718749036,56.183745
1753718749064,56.015593
1753718749099,55.883398
1753718749132,56.147319
1753718749165,56.284325
1753718749194,56.364247
1753718749241,56.685304
1753718749263,56.724542
1753718749298,56.759985
1753718749332,56.524645
1753718749359,56.779224
1753718749405,56.5407
1753718749432,56.847232
1753718749466,56.557621
1753718749498,56.895755
1753718749535,56.618168
1753718749565,56.640974
1753718749600,56.667817
1753718749634,56.704471
1753718749666,56.686267
1753718749699,56.567862
1753718749731,56.264403
1753718749766,56.239982
1753718749798,56.165587
1753718749841,56.473564
1753718749865,56.500485
1753718749906,56.573754
1753718749936,56.641248
1753718749968,56.69367
1753718749995,56.712042
1753718750031,56.712765
1753718750073,56.470563
1753718750096,56.447028
1753718750135,56.463662
1753718750164,56.512516
1753718750202,56.537503
1753718750223,56.579053
1753718750266,56.603891
1753718750301,56.522503
1753718750333,56.536416
1753718750371,56.515283
1753718750395,56.498643
1753718750431,56.299325
1753718750467,55.826405
1753718750505,55.709647
1753718750532,56.142351
1753718750563,56.156368
1753718750595,56.454625
1753718750626,56.557165
1753718750669,56.327059
1753718750697,56.326252
1753718750731,56.334599
1753718750766,56.385348
1753718750800,56.383948
1753718750835,56.41165
1753718750863,56.435621
1753718750900,56.456442
1753718750934,56.346265
1753718750970,56.497633
1753718751003,56.036869
1753718751039,56.038438
1753718751070,56.052188
1753718751101,56.101303
1753718751134,56.094232
1753718751169,56.117097
1753718751200,56.114037
1753718751228,56.09862
1753718751268,55.931048
1753718751291,55.729035
1753718751333,55.619457
1753718751367,56.041797
1753718751397,56.324013
1753718751427,56.365009
1753718751470,56.442835
1753718751501,56.479749
1753718751529,56.506423
1753718751564,56.496742
1753718751594,56.239259
1753718751633,56.22866
1753718751661,56.249897
1753718751691,56.284624
1753718751728,56.283517
1753718751775,56.357971
1753718751795,56.370452
1753718751834,56.435309
1753718751869,56.446396
1753718751898,56.473662
1753718751930,56.038561
1753718751960,56.103536
1753718752007,56.141329
1753718752034,56.066862
1753718752063,55.919387
1753718752097,55.707192
1753718752130,55.591189
1753718752170,55.937519
1753718752195,56.080007
1753718752234,56.414033
1753718752262,56.492653
1753718752303,56.533213
1753718752335,56.602419
1753718752363,56.3073
1753718752397,56.208771
1753718752432,56.230288
1753718752464,56.281141
1753718752495,56.405816
1753718752526,56.484274
1753718752565,56.50057
1753718752599,56.35383
1753718752631,56.419846
1753718752669,56.455009
1753718752702,56.21215
1753718752741,56.338238
1753718752767,56.263023
1753718752800,56.409918
1753718752832,56.320158
1753718752863,57.053451
1753718752897,56.808671
1753718752927,57.524294
1753718752963,58.775812
1753718753000,58.634542
1753718753033,59.400914
1753718753051,60.047956
1753718753088,59.159617
1753718753129,59.088523
1753718753158,59.214207
1753718753199,58.72227
1753718753228,59.021966
1753718753259,59.059675
1753718753292,59.132
1753718753331,59.221199
1753718753362,59.186922
1753718753392,59.038933
1753718753433,58.797199
1753718753454,58.897174
1753718753497,58.792785
1753718753529,58.894928
1753718753570,59.126238
1753718753600,59.21452
1753718753637,59.038288
1753718753661,59.013822
1753718753693,59.099714
1753718753740,59.159662
1753718753764,59.29312
1753718753797,59.375387
1753718753827,59.061309
1753718753867,58.820363
1753718753899,58.798065
1753718753932,58.535108
1753718753963,58.509756
1753718754001,57.998184
1753718754034,57.915839
1753718754063,57.930859
1753718754102,58.051491
1753718754130,58.093282
1753718754164,57.651254
1753718754204,57.57531
1753718754230,57.568324
1753718754267,57.429834
1753718754307,57.279728
1753718754334,56.944238
1753718754370,56.535244
1753718754395,56.716535
1753718754429,56.956302
1753718754475,57.32913
1753718754496,57.336636
1753718754531,57.369429
1753718754562,57.410921
1753718754603,57.467855
1753718754633,57.533109
1753718754662,57.555212
1753718754695,57.561664
1753718754734,57.563793
1753718754768,57.569958
1753718754798,57.537445
1753718754830,57.540622
1753718754862,57.50807
1753718754901,57.516462
1753718754934,57.494534
1753718754965,57.184226
1753718754994,57.079799
1753718755031,56.918118
1753718755068,56.885227
1753718755093,56.84787
1753718755134,57.124135
1753718755163,57.178497
1753718755199,57.221857
1753718755232,57.250952
1753718755260,57.268993
1753718755301,57.296773
1753718755326,57.262541
1753718755362,57.256447
1753718755393,57.2848
1753718755436,57.323277
1753718755467,57.349403
1753718755503,57.403772
1753718755530,57.390693
1753718755569,57.393173
1753718755597,57.395797
1753718755631,57.384644
1753718755664,57.3498
1753718755693,57.272391
1753718755735,57.176642
1753718755756,57.122781
1753718755803,57.149246
1753718755827,57.157189
1753718755872,57.212169
1753718755902,57.259969
1753718755930,57.28784
1753718755963,57.26648
1753718755998,57.284364
1753718756034,57.303114
1753718756054,57.314091
1753718756101,57.324846
1753718756128,57.339696
1753718756177,57.361252
1753718756202,57.383772
1753718756229,57.385979
1753718756264,57.243511
1753718756301,57.247573
1753718756332,57.101472
1753718756365,56.745734
1753718756405,56.765018
1753718756432,57.068386
1753718756466,57.088946
1753718756499,57.151811
1753718756535,57.188354
1753718756577,57.213856
1753718756598,57.263231
1753718756628,57.294644
1753718756667,57.286629
1753718756702,57.282196
1753718756735,57.254468
1753718756767,57.311161
1753718756797,57.288185
1753718756831,57.325835
1753718756862,57.360562
1753718756901,57.384208
1753718756930,57.395296
1753718756965,57.129584
1753718756992,57.337183
1753718757036,56.93528
1753718757069,56.842141
1753718757106,57.039987
1753718757133,57.052175
1753718757165,57.022904
1753718757194,57.042045
1753718757235,57.093386
1753718757263,57.039082
1753718757298,56.766756
1753718757326,56.747511
1753718757365,56.73173
1753718757397,56.735395
1753718757432,56.768176
1753718757462,56.790871
1753718757495,56.719399
1753718757535,56.807662
1753718757565,56.828821
1753718757597,56.79703
1753718757631,56.657954
1753718757669,56.564613
1753718757693,56.537386
1753718757735,56.738416
1753718757765,56.76897
1753718757800,56.668709
1753718757825,56.653331
1753718757859,56.666248
1753718757905,57.00806
1753718757929,56.983014
1753718757975,56.726867
1753718757997,56.783944
1753718758034,56.846067
1753718758063,56.974401
1753718758090,57.078614
1753718758134,56.830031
1753718758158,56.862141
1753718758200,56.953554
1753718758227,56.890676
1753718758273,56.79938
1753718758299,56.752225
1753718758332,56.778325
1753718758368,57.308882
1753718758397,57.830923
1753718758431,58.001224
1753718758461,58.295738
1753718758509,58.181095
1753718758530,58.210483
1753718758563,58.075873
1753718758603,58.167898
1753718758630,58.245093
1753718758663,58.471266
1753718758708,58.352157
1753718758729,58.128302
1753718758764,57.526481
1753718758809,57.189825
1753718758828,57.082142
1753718758863,56.978561
1753718758894,57.031563
1753718758941,57.153067
1753718758956,57.14517
1753718758999,56.825891
1753718759034,56.870207
1753718759066,57.047155
1753718759101,56.512425
1753718759130,56.423356
1753718759161,57.134005
1753718759195,57.460732
1753718759239,57.0539
1753718759265,56.921061
1753718759313,56.940996
1753718759332,57.310399
1753718759363,57.078913
1753718759399,57.279976
1753718759429,57.28633
1753718759460,56.845702
1753718759499,55.882343
1753718759532,55.859595
1753718759571,56.492568
1753718759598,57.163028
1753718759634,57.330686
1753718759676,57.402874
1753718759709,57.849719
1753718759727,57.74604
1753718759773,57.282469
1753718759793,57.069415
1753718759831,57.127136
1753718759869,57.700317
1753718759897,57.945664
1753718759933,57.917213
1753718759969,57.69298
1753718759999,57.718774
1753718760031,57.51458
1753718760062,57.494534
1753718760098,57.561078
1753718760139,57.770526
1753718760156,57.800285
1753718760201,57.185262
1753718760227,57.402744
1753718760270,57.270112
1753718760301,57.090534
1753718760334,56.821451
1753718760362,56.406656
1753718760401,55.948118
1753718760435,55.53249
1753718760463,55.742537
1753718760498,55.721222
1753718760534,56.225444
1753718760564,56.64449
1753718760592,56.77856
1753718760631,56.918372
1753718760667,56.775305
1753718760697,56.815012
1753718760730,56.752251
1753718760766,56.58934
1753718760810,56.70087
1753718760836,56.779588
1753718760865,56.469957
1753718760898,56.478317
1753718760938,56.478428
1753718760970,56.398746
1753718760991,56.343648
1753718761032,56.677921
1753718761063,56.876008
1753718761101,56.814771
1753718761132,56.596267
1753718761164,56.539711
1753718761197,56.62324
1753718761234,56.687973
1753718761264,56.839348
1753718761296,56.938489
1753718761331,56.677954
1753718761362,56.717602
1753718761401,56.744419
1753718761433,56.73298
1753718761470,56.783397
1753718761499,56.908554
1753718761532,56.674646
1753718761565,56.757479
1753718761599,56.936503
1753718761638,57.063783
1753718761657,57.146375
1753718761699,57.143783
1753718761729,56.661039
1753718761770,56.560388
1753718761802,56.193686
1753718761830,55.708169
1753718761864,55.590837
1753718761900,56.021354
1753718761926,55.965019
1753718761963,56.35355
1753718762003,56.33355
1753718762035,56.35133
1753718762064,56.333381
1753718762095,56.332489
1753718762138,56.336063
1753718762158,56.333974
1753718762203,56.328401
1753718762233,56.353511
1753718762263,56.460511
1753718762292,56.538434
1753718762331,56.627634
1753718762367,56.686411
1753718762398,56.335809
1753718762434,56.361304
1753718762467,56.336441
1753718762503,56.004219
1753718762535,55.297652
1753718762565,55.718436
1753718762597,55.765728
1753718762627,55.867792
1753718762674,56.008633
1753718762704,56.109467
1753718762731,56.231499
1753718762766,56.292736
1753718762797,56.321779
1753718762828,56.32676
1753718762864,56.375549
1753718762901,56.445953
1753718762928,56.419645
1753718762964,56.459782
1753718762997,55.970872
1753718763040,55.916953
1753718763068,55.813156
1753718763096,55.617634
1753718763133,55.280594
1753718763168,55.095658
1753718763201,54.903072
1753718763237,55.456832
1753718763258,55.958457
1753718763296,56.431533
1753718763334,56.251636
1753718763364,56.341806
1753718763398,56.382268
1753718763429,56.420055
1753718763463,56.372014
1753718763514,56.444436
1753718763530,56.44691
1753718763565,56.169571
1753718763595,56.222319
1753718763631,56.276922
1753718763661,56.315555
1753718763700,56.111153
1753718763733,55.730304
1753718763779,55.560336
1753718763796,55.549789
1753718763831,55.964427
1753718763865,56.50598
1753718763900,56.646853
1753718763936,56.321604
1753718763960,56.448434
1753718764002,56.493109
1753718764035,56.489899
1753718764065,56.47762
1753718764097,56.478519
1753718764131,56.489814
1753718764171,56.528369
1753718764194,56.573663
1753718764229,56.629698
1753718764266,56.204741
1753718764307,55.932083
1753718764330,55.651502
1753718764377,55.499847
1753718764396,55.853072
1753718764427,55.95205
1753718764468,56.530218
1753718764493,56.535134
1753718764538,56.637543
1753718764562,56.394495
1753718764598,56.406969
1753718764634,56.389163
1753718764663,56.382535
1753718764697,56.400204
1753718764742,56.451767
1753718764763,56.461481
1753718764801,56.499157
1753718764827,56.502575
1753718764860,56.390543
1753718764902,56.125365
1753718764930,55.913235
1753718764974,55.773514
1753718764998,56.133979
1753718765033,56.599053
1753718765069,56.710083
1753718765096,56.602517
1753718765139,56.725037
1753718765157,56.782863
1753718765198,56.652172
1753718765230,56.356441
1753718765275,56.331975
1753718765296,56.325269
1753718765330,56.363538
1753718765360,56.370803
1753718765396,56.402542
1753718765437,56.384716
1753718765469,56.243634
1753718765508,55.916412
1753718765533,55.71063
1753718765565,55.620199
1753718765599,56.344078
1753718765631,56.774634
1753718765661,56.893209
1753718765695,57.116856
1753718765735,56.923281
1753718765765,56.933671
1753718765798,56.929772
1753718765828,56.901035
1753718765868,56.858918
1753718765900,56.915012
1753718765938,56.972402
1753718765973,57.027676
1753718765993,57.071609
1753718766032,56.793755
1753718766064,56.540772
1753718766108,56.163328
1753718766135,55.977617
1753718766165,56.154246
1753718766199,56.819979
1753718766227,57.684197
1753718766262,58.288511
1753718766306,58.85123
1753718766338,59.397457
1753718766370,58.953144
1753718766413,59.63447
1753718766437,59.830897
1753718766466,59.686137
1753718766506,60.228699
1753718766526,60.351734
1753718766561,60.020866
1753718766603,59.730057
1753718766634,59.722687
1753718766665,59.508382
1753718766694,58.942877
1753718766735,58.758853
1753718766767,59.114317
1753718766804,60.127696
1753718766851,60.54878
1753718766867,60.735682
1753718766898,60.479404
1753718766932,60.535446
1753718766961,60.454892
1753718767001,60.267176
1753718767030,60.246382
1753718767073,60.269637
1753718767099,60.32066
1753718767132,60.382314
1753718767166,60.410471
1753718767200,60.185678
1753718767233,60.176544
1753718767260,59.808801
1753718767299,59.613474
1753718767331,59.450003
1753718767372,59.68089
1753718767404,60.268941
1753718767437,60.431318
1753718767464,60.607042
1753718767497,60.352646
1753718767531,60.452731
1753718767563,60.348707
1753718767600,60.351291
1753718767631,60.334553
1753718767663,60.345868
1753718767693,60.365094
1753718767736,60.137957
1753718767767,60.162423
1753718767806,60.035202
1753718767822,59.91832
1753718767867,59.523369
1753718767901,59.350484
1753718767931,59.305165
1753718767970,59.691183
1753718767988,60.268726
1753718768034,60.393062
1753718768063,60.553506
1753718768109,60.592074
1753718768133,60.53626
1753718768166,60.269839
1753718768198,60.131114
1753718768233,60.110222
1753718768266,60.135339
1753718768300,60.347118
1753718768331,60.253797
1753718768363,60.333147
1753718768403,60.276786
1753718768434,59.783085
1753718768470,59.500218
1753718768495,59.35704
1753718768524,59.581905
1753718768566,60.159819
1753718768601,60.308101
1753718768636,60.446976
1753718768666,60.50777
1753718768701,60.237664
1753718768735,60.257808
1753718768765,59.984075
1753718768798,59.923528
1753718768826,59.822857
1753718768876,59.867362
1753718768905,59.914348
1753718768929,60.070411
1753718768962,59.982519
1753718769007,59.983379
1753718769027,59.684262
1753718769068,59.179682
1753718769097,59.339911
1753718769144,59.690981
1753718769161,59.934049
1753718769200,60.019974
1753718769234,60.171179
1753718769264,60.268316
1753718769299,60.466787
1753718769327,60.619971
1753718769370,60.603637
1753718769405,60.624653
1753718769429,60.648494
1753718769467,60.641625
1753718769493,60.765571
1753718769537,60.576091
1753718769565,60.540752
1753718769595,60.383225
1753718769627,59.912734
1753718769675,59.707941
1753718769701,59.516846
1753718769740,59.554939
1753718769761,59.42346
1753718769795,59.33676
1753718769836,59.710747
1753718769868,59.851705
1753718769896,59.799126
1753718769926,59.370777
1753718769968,59.705512
1753718769997,59.610069
1753718770047,59.674197
1753718770066,59.49654
1753718770087,59.582667
1753718770140,59.447633
1753718770167,58.780383
1753718770204,58.340269
1753718770236,58.647192
1753718770263,59.012363
1753718770296,59.53501
1753718770340,59.753247
1753718770359,60.387288
1753718770396,61.262567
1753718770432,61.344228
1753718770458,61.448408
1753718770510,61.207996
1753718770525,61.243927
1753718770562,61.121589
1753718770593,60.830975
1753718770635,60.879999
1753718770665,60.804673
1753718770703,60.361422
1753718770725,60.19922
1753718770754,60.110756
1753718770795,60.643233
1753718770826,61.265249
1753718770868,61.402223
1753718770889,61.502223
1753718770928,61.530492
1753718770958,61.272801
1753718771000,61.224761
1753718771029,61.164988
1753718771060,61.071895
1753718771093,61.20254
1753718771121,61.164011
1753718771163,61.226649
1753718771194,61.299729
1753718771235,61.213159
1753718771258,60.767778
1753718771294,60.518636
1753718771326,60.444228
1753718771355,61.048529
1753718771397,61.460257
1753718771426,61.748976
1753718771457,61.917584
1753718771493,61.880019
1753718771528,61.993789
1753718771560,61.89134
1753718771600,61.92638
1753718771631,61.918457
1753718771662,62.024759
1753718771696,62.289995
1753718771726,62.361526
1753718771774,62.466045
1753718771802,62.129897
1753718771827,61.713071
1753718771872,61.414697
1753718771900,61.356448
1753718771933,61.958346
1753718771973,62.40484
1753718771999,62.526104
1753718772029,62.350536
1753718772063,62.31273
1753718772097,62.337385
1753718772142,62.288198
1753718772161,62.244989
1753718772202,62.231837
1753718772231,62.229018
1753718772272,62.273804
1753718772302,62.330178
1753718772331,62.355627
1753718772363,62.312736
1753718772402,61.952877
1753718772432,61.370881
1753718772467,61.279455
1753718772497,61.482386
1753718772529,61.538369
1753718772570,61.59796
1753718772599,61.726164
1753718772633,61.924856
1753718772669,62.139929
1753718772696,62.254396
1753718772734,62.312496
1753718772763,62.375146
1753718772798,62.498584
1753718772830,62.692498
1753718772871,62.896666
1753718772897,63.103217
1753718772930,63.279566
1753718772965,63.374325
1753718772994,63.341402
1753718773038,63.123191
1753718773065,62.523903
1753718773094,62.203165
1753718773130,62.020208
1753718773170,61.943405
1753718773200,61.976738
1753718773230,62.082898
1753718773265,62.186186
1753718773298,62.271538
1753718773334,62.292665
1753718773369,62.238895
1753718773397,62.199174
1753718773425,62.191557
1753718773472,62.197736
1753718773498,62.212033
1753718773533,62.254735
1753718773565,62.304234
1753718773596,62.311285
1753718773635,62.292749
1753718773662,62.274898
1753718773698,62.123171
1753718773728,61.574581
1753718773774,61.311929
1753718773800,61.171928
1753718773832,61.231336
1753718773864,61.300907
1753718773891,61.411057
1753718773937,61.560687
1753718773966,61.635401
1753718773995,61.64531
1753718774030,61.610928
1753718774070,61.584913
1753718774096,61.599112
1753718774134,61.625759
1753718774160,61.717785
1753718774198,61.79785
1753718774236,61.857584
1753718774266,61.912239
1753718774298,61.955175
1753718774329,61.88707
1753718774374,61.43997
1753718774395,60.95733
1753718774436,60.73076
1753718774463,60.569704
1753718774498,60.474801
1753718774539,60.486735
1753718774556,60.551573
1753718774622,61.060502
1753718774637,61.702016
1753718774668,62.1006
1753718774696,62.279435
1753718774740,62.638266
1753718774763,62.947441
1753718774802,63.278732
1753718774828,63.667211
1753718774864,63.821737
1753718774907,63.969069
1753718774932,64.055925
1753718774963,63.997266
1753718774998,63.82591
1753718775036,63.342535
1753718775066,63.090137
1753718775100,62.863931
1753718775128,62.684835
1753718775160,62.540804
1753718775202,62.468421
1753718775232,62.471533
1753718775266,62.517093
1753718775301,62.548116
1753718775337,62.563643
1753718775367,62.630792
1753718775401,62.790109
1753718775429,63.026003
1753718775461,63.250282
1753718775497,63.42206
1753718775526,63.561989
1753718775567,63.699731
1753718775598,63.84164
1753718775630,63.840331
1753718775660,63.477594
1753718775700,63.051797
1753718775732,62.891217
1753718775756,62.887857
1753718775802,62.996348
1753718775832,63.153842
1753718775855,63.29439
1753718775894,63.435452
1753718775934,63.539795
1753718775966,63.570713
1753718776010,63.588187
1753718776032,63.598826
1753718776064,63.64322
1753718776094,63.732075
1753718776126,63.849003
1753718776171,63.968327
1753718776201,64.063197
1753718776226,64.142442
1753718776264,64.2281
1753718776298,64.304937
1753718776328,64.271506
1753718776375,63.8383
1753718776390,63.355523
1753718776431,63.16629
1753718776471,63.079278
1753718776489,63.140711
1753718776533,63.232684
1753718776562,63.34844
1753718776607,63.474958
1753718776634,63.588253
1753718776668,63.634366
1753718776704,63.626905
1753718776730,63.613435
1753718776758,63.62977
1753718776793,63.689158
1753718776831,63.766216
1753718776860,63.828788
1753718776901,63.869921
1753718776932,63.927044
1753718776980,63.957702
1753718777001,63.926725
1753718777021,63.698025
1753718777067,62.98401
1753718777098,62.748566
1753718777125,62.530934
1753718777159,62.446188
1753718777200,62.453336
1753718777232,62.54529
1753718777264,62.694516
1753718777301,62.769985
1753718777341,62.75186
1753718777367,62.68507
1753718777391,62.654119
1753718777433,62.704627
1753718777461,62.839224
1753718777501,62.980723
1753718777541,63.116068
1753718777565,63.233061
1753718777600,63.350139
1753718777645,63.4176
1753718777664,63.255203
1753718777694,62.766092
1753718777733,62.531709
1753718777761,62.391598
1753718777812,62.401214
1753718777833,62.54794
1753718777867,62.786913
1753718777898,63.015521
1753718777937,63.202378
1753718777964,63.264943
1753718777995,63.255965
1753718778027,63.232124
1753718778061,63.25773
1753718778099,63.338336
1753718778132,63.467575
1753718778175,63.53904
1753718778196,63.615675
1753718778232,63.68201
1753718778266,63.614919
1753718778293,63.138139
1753718778330,62.733696
1753718778366,62.519437
1753718778398,62.402978
1753718778429,62.43316
1753718778471,62.522562
1753718778491,62.674431
1753718778528,62.872154
1753718778558,63.03586
1753718778597,63.0989
1753718778635,63.096062
1753718778667,63.114161
1753718778715,63.183836
1753718778732,63.287945
1753718778765,63.417607
1753718778793,63.535954
1753718778835,63.621221
1753718778870,63.668448
1753718778894,63.501566
1753718778929,62.814439
1753718778961,62.540179
1753718778997,62.331298
1753718779028,62.26105
1753718779069,62.264989
1753718779093,62.326929
1753718779133,62.445341
1753718779165,62.574802
1753718779211,62.616807
1753718779231,62.568571
1753718779259,62.525049
1753718779299,62.540563
1753718779329,62.634412
1753718779370,62.779211
1753718779391,62.913092
1753718779432,63.017044
1753718779462,63.083965
1753718779509,63.140235
1753718779525,63.099721
1753718779564,62.686906
1753718779595,62.296799
1753718779628,62.079402
1753718779667,61.970729
1753718779700,61.988249
1753718779727,62.082859
1753718779756,62.229715
1753718779800,62.393557
1753718779829,62.508558
1753718779863,62.510804
1753718779906,62.469183
1753718779934,62.496481
1753718779962,62.589411
1753718779997,62.675551
1753718780037,62.76925
1753718780064,62.88259
1753718780097,63.001758
1753718780127,63.109337
1753718780171,63.178797
1753718780202,63.122566
1753718780228,62.642849
1753718780264,62.235249
1753718780289,61.996986
1753718780332,61.864407
1753718780363,61.869296
1753718780406,61.938769
1753718780444,62.099258
1753718780478,62.295705
1753718780498,62.41344
1753718780544,62.396083
1753718780564,62.322749
1753718780592,62.308114
1753718780633,62.358498
1753718780658,62.445263
1753718780708,62.522334
1753718780735,62.584047
1753718780764,62.63589
1753718780797,62.695076
1753718780831,62.764452
1753718780870,62.737544
1753718780898,62.338127
1753718780936,61.902688
1753718780966,61.694158
1753718780996,61.602335
1753718781026,61.659711
1753718781070,61.781691
1753718781102,61.946484
1753718781130,62.127566
1753718781161,62.239266
1753718781189,62.241043
1753718781234,62.186154
1753718781262,62.159265
1753718781309,62.18463
1753718781327,62.253049
1753718781366,62.336793
1753718781392,62.419866
1753718781441,62.491592
1753718781468,62.560108
1753718781498,62.605076
1753718781533,62.425003
1753718781564,61.762778
1753718781604,61.506859
1753718781632,61.324917
1753718781663,61.277196
1753718781700,61.342698
1753718781741,61.467366
1753718781763,61.626365
1753718781799,61.724347
1753718781830,61.748403
1753718781857,61.747909
1753718781901,61.818443
1753718781933,61.963808
1753718781963,62.118087
1753718781996,62.246115
1753718782038,62.39273
1753718782068,62.550583
1753718782094,62.697218
1753718782127,62.796255
1753718782156,62.659549
1753718782200,62.080515
1753718782236,61.918248
1753718782265,61.852694
1753718782297,61.940013
1753718782328,62.111283
1753718782357,62.334208
1753718782393,62.543155
1753718782430,62.699419
1753718782458,62.7391
1753718782503,62.742778
1753718782529,62.815949
1753718782561,62.923268
1753718782592,63.051875
1753718782635,63.165346
1753718782663,63.270444
1753718782696,63.372008
1753718782726,63.463506
1753718782757,63.447067
1753718782799,63.020925
1753718782833,62.475602
1753718782873,62.248062
1753718782896,62.095469
1753718782930,62.051563
1753718782960,62.079779
1753718783004,62.178842
1753718783039,62.315048
1753718783055,62.427626
1753718783115,62.466194
1753718783129,62.433349
1753718783167,62.436533
1753718783193,62.498747
1753718783240,62.581091
1753718783261,62.681495
1753718783300,62.791932
1753718783330,62.880149
1753718783363,62.953105
1753718783400,63.047735
1753718783429,63.148198
1753718783470,63.021387
1753718783491,62.325126
1753718783533,62.103712
1753718783564,61.934921
1753718783612,61.866588
1753718783631,61.868645
1753718783658,61.915637
1753718783701,62.057826
1753718783728,62.214064
1753718783771,62.277599
1753718783803,62.268094
1753718783825,62.22855
1753718783863,62.242183
1753718783905,62.303772
1753718783935,62.394729
1753718783962,62.483844
1753718783996,62.560017
1753718784030,62.615492
1753718784069,62.647693
1753718784092,62.676743
1753718784134,62.707674
1753718784161,62.610479
1753718784203,62.050476
1753718784233,61.651183
1753718784266,61.415823
1753718784297,61.267931
1753718784328,61.215359
1753718784373,61.223849
1753718784396,61.277599
1753718784428,61.370777
1753718784460,61.442744
1753718784501,61.414345
1753718784524,61.366929
1753718784579,61.372379
1753718784594,61.450739
1753718784627,61.571026
1753718784667,61.717121
1753718784699,61.848664
1753718784728,61.952487
1753718784764,62.051205
1753718784804,62.170776
1753718784828,62.283348
1753718784868,62.242866
1753718784891,61.74854
1753718784928,61.431259
1753718784968,61.235607
1753718784996,61.193569
1753718785036,61.297222
1753718785063,61.437028
1753718785102,61.654295
1753718785130,61.841132
1753718785173,61.937096
1753718785199,61.982708
1753718785230,62.159936
1753718785268,63.210581
1753718785291,64.25702
1753718785333,64.979518
1753718785364,65.180444
1753718785407,65.357444
1753718785425,65.455791
1753718785462,65.535316
1753718785496,65.597497
1753718785519,65.590733
1753718785568,65.213908
1753718785591,64.936751
1753718785631,64.790975
1753718785661,64.83884
1753718785702,65.014544
1753718785730,65.173588
1753718785765,65.337268
1753718785796,65.478369
1753718785844,65.554437
1753718785865,65.558721
1753718785898,65.554606
1753718785933,65.551716
1753718785960,65.583754
1753718786003,65.651619
1753718786030,65.730285
1753718786066,65.794673
1753718786096,65.830409
1753718786134,65.845963
1753718786162,65.849498
1753718786194,65.806939
1753718786237,65.436077
1753718786263,64.426292
1753718786297,64.085228
1753718786334,63.917897
1753718786370,63.841399
1753718786396,63.815077
1753718786435,63.834712
1753718786464,63.908919
1753718786495,63.986966
1753718786531,64.007734
1753718786562,63.975534
1753718786605,63.964505
1753718786628,64.004551
1753718786661,64.087924
1753718786695,64.18435
1753718786737,64.263856
1753718786761,64.345744
1753718786796,64.428968
1753718786829,64.479137
1753718786862,64.505283
1753718786902,64.520563
1753718786934,64.510505
1753718786958,64.408206
1753718786995,63.835377
1753718787036,63.38221
1753718787069,63.203751
1753718787094,63.111036
1753718787127,63.133679
1753718787168,63.224253
1753718787229,63.357567
1753718787242,63.484196
1753718787261,63.53876
1753718787297,63.498753
1753718787341,63.435934
1753718787359,63.425185
1753718787406,63.468401
1753718787434,63.563526
1753718787457,63.684379
1753718787495,63.795435
1753718787529,63.877668
1753718787567,63.70688
1753718787598,63.78009
1753718787630,63.865533
1753718787662,63.924303
1753718787700,63.93511
1753718787742,63.964902
1753718787760,64.008242
1753718787794,63.854595
1753718787824,63.022839
1753718787873,62.685219
1753718787896,62.511025
1753718787938,62.468258
1753718787962,62.534294
1753718787999,62.661756
1753718788031,62.823033
1753718788065,62.940338
1753718788095,62.955911
1753718788130,62.902089
1753718788174,62.839686
1753718788196,62.8522
1753718788230,62.922682
1753718788262,63.005677
1753718788305,63.353277
1753718788332,63.435172
1753718788377,63.48807
1753718788400,63.535303
1753718788426,63.565635
1753718788465,63.625238
1753718788497,63.65893
1753718788533,63.683553
1753718788563,63.57447
1753718788605,62.874791
1753718788634,62.415432
1753718788665,62.211206
1753718788697,62.103061
1753718788730,62.129793
1753718788770,62.262411
1753718788793,62.474762
1753718788835,62.642394
1753718788864,62.693865
1753718788897,62.635173
1753718788933,62.576983
1753718788975,62.589092
1753718788994,62.672602
1753718789028,62.809367
1753718789066,62.931751
1753718789098,63.043789
1753718789137,63.136205
1753718789155,63.222384
1753718789198,63.306154
1753718789228,63.378075
1753718789263,63.219305
1753718789295,62.534763
1753718789331,62.288062
1753718789366,62.089278
1753718789396,62.044121
1753718789432,62.116531
1753718789464,62.21506
1753718789504,62.363772
1753718789527,62.526462
1753718789584,62.577797
1753718789601,62.2934
1753718789627,62.268081
1753718789666,62.309436
1753718789698,62.425934
1753718789731,62.549398
1753718789759,62.651052
1753718789801,62.750018
1753718789831,62.826802
1753718789866,62.888893
1753718789897,63.208869
1753718789940,63.132533
1753718789964,62.527829
1753718789999,62.179122
1753718790032,61.983457
1753718790064,61.926438
1753718790094,62.000599
1753718790130,62.126088
1753718790166,62.295139
1753718790196,62.465355
1753718790238,62.535648
1753718790256,62.511012
1753718790304,62.471142
1753718790335,62.499906
1753718790363,62.593253
1753718790397,62.704419
1753718790433,62.826959
1753718790468,62.959635
1753718790500,63.091628
1753718790546,63.176225
1753718790580,63.256232
1753718790595,63.318466
1753718790628,63.207592
1753718790663,62.483903
1753718790701,62.187736
1753718790729,61.978073
1753718790767,61.894544
1753718790799,61.912428
1753718790841,62.009362
1753718790862,62.17463
1753718790892,62.328804
1753718790929,62.394475
1753718790968,62.336467
1753718790995,62.294592
1753718791028,62.30607
1753718791070,62.415159
1753718791097,62.570655
1753718791133,62.706463
1753718791167,62.804589
1753718791210,62.886366
1753718791226,62.982305
1753718791261,63.075964
1753718791300,63.183139
1753718791336,63.259507
1753718791357,63.053907
1753718791398,62.29857
1753718791429,62.102468
1753718791468,61.950293
1753718791502,61.981348
1753718791534,62.116238
1753718791564,62.283576
1753718791597,62.486976
1753718791629,62.62684
1753718791668,62.649724
1753718791697,62.57889
1753718791739,62.547165
1753718791766,62.58626
1753718791799,62.661013
1753718791827,62.723455
1753718791862,62.709777
1753718791902,62.65975
1753718791931,62.569958
1753718791964,62.34038
1753718792001,62.059532
1753718792035,61.537145
1753718792062,60.479632
1753718792094,59.875937
1753718792128,59.72867
1753718792161,59.846672
1753718792191,60.180581
1753718792221,60.36911
1753718792263,60.519886
1753718792292,60.619548
1753718792324,60.664236
1753718792357,60.644119
1753718792397,60.652309
1753718792427,60.773377
1753718792458,61.369429
1753718792498,61.947526
1753718792526,62.347235
1753718792557,62.841548
1753718792594,63.149467
1753718792631,63.348603
1753718792661,63.394736
1753718792697,63.076205
1753718792729,62.744549
1753718792780,62.598962
1753718792802,62.617309
1753718792824,62.783475
1753718792863,63.017754
1753718792893,63.288973
1753718792925,63.472321
1753718792961,63.559183
1753718792995,63.5193
1753718793029,63.532796
1753718793079,63.616736
1753718793098,63.706587
1753718793129,63.81455
1753718793158,63.953795
1753718793191,64.069792
1753718793230,64.167247
1753718793263,64.149467
1753718793296,63.522868
1753718793323,63.082761
1753718793364,62.909055
1753718793394,62.826932
1753718793430,62.873944
1753718793459,62.969902
1753718793496,63.100515
1753718793530,63.242124
1753718793561,63.353563
1753718793593,63.399273
1753718793625,63.37635
1753718793662,63.348101
1753718793694,63.377066
1753718793724,63.449925
1753718793766,63.560245
1753718793786,63.688019
1753718793833,63.807329
1753718793859,63.911341
1753718793902,63.84524
1753718793932,63.210014
1753718793963,62.925097
1753718793997,62.728156
1753718794037,62.637921
1753718794061,62.64561
1753718794099,62.733501
1753718794129,62.877004
1753718794163,63.027852
1753718794204,63.106101
1753718794224,63.069519
1753718794268,63.000319
1753718794296,62.985182
1753718794338,63.062885
1753718794365,63.230672
1753718794400,63.404085
1753718794434,63.550362
1753718794462,63.69479
1753718794499,63.801405
1753718794531,63.851978
1753718794561,63.544086
1753718794595,62.766873
1753718794636,62.594568
1753718794667,62.475075
1753718794693,62.522582
1753718794731,62.650759
1753718794763,62.791509
1753718794805,62.964049
1753718794826,63.078542
1753718794866,63.085769
1753718794896,63.031459
1753718794941,62.974355
1753718794954,62.986758
1753718794994,63.078295
1753718795031,63.1706
1753718795062,63.259181
1753718795100,63.320295
1753718795135,63.390686
1753718795164,63.444938
1753718795197,63.332476
1753718795229,62.505713
1753718795263,62.180887
1753718795296,62.024479
1753718795335,62.024961
1753718795366,62.147267
1753718795395,62.309878
1753718795431,62.499092
1753718795472,62.650577
1753718795494,62.70979
1753718795533,62.683527
1753718795564,62.686437
1753718795609,62.755721
1753718795631,62.894557
1753718795656,63.083536
1753718795699,63.233608
1753718795727,63.389032
1753718795763,63.512269
1753718795798,63.617244
1753718795841,63.623689
1753718795862,63.123067
1753718795897,62.504391
1753718795933,62.344006
1753718795963,62.27439
1753718796001,62.321571
1753718796031,62.413544
1753718796066,62.560186
1753718796098,62.746209
1753718796131,62.869941
1753718796162,62.885735
1753718796212,62.869146
1753718796228,62.893385
1753718796258,62.975924
1753718796299,63.089935
1753718796330,63.242404
1753718796364,63.395777
1753718796397,63.502926
1753718796434,63.582361
1753718796467,63.643578
1753718796495,63.59154
1753718796530,62.908743
1753718796562,62.435211
1753718796597,62.26064
1753718796632,62.164682
1753718796668,62.174077
1753718796697,62.23174
1753718796727,62.335119
1753718796765,62.489274
1753718796803,62.627048
1753718796828,62.680818
1753718796866,62.692407
1753718796904,62.727583
1753718796924,62.809738
1753718796964,62.917818
1753718796999,63.018054
1753718797042,63.108262
1753718797062,63.158998
1753718797098,63.148386
1753718797131,63.158745
1753718797175,63.218126
1753718797197,63.249461
1753718797230,63.114669
1753718797266,62.200327
1753718797299,61.347392
1753718797336,60.653331
1753718797363,60.111479
1753718797405,59.69934
1753718797433,57.85647
1753718797466,54.911048
1753718797498,50.313166
1753718797532,43.814999
1753718797572,36.075534
1753718797596,28.681632
1753718797632,25.209005
1753718797664,23.795708
1753718797716,24.949069
1753718797731,28.29398
1753718797765,30.823873
1753718797794,35.590447
1753718797823,37.613129
1753718797868,39.922669
1753718797899,41.779953
1753718797939,41.695903
1753718797966,42.610811
1753718798001,43.840735
1753718798035,44.169402
1753718798063,44.116622
1753718798095,44.171479
1753718798136,44.592777
1753718798166,46.202293
1753718798200,48.842121
1753718798233,49.188523
1753718798272,49.337157
1753718798302,49.410908
1753718798336,49.035319
1753718798367,48.652914
1753718798400,48.82509
1753718798434,48.483929
1753718798461,49.053679
1753718798493,49.163159
1753718798537,49.098139
1753718798565,48.639288
1753718798603,48.417145
1753718798633,47.767199
1753718798667,47.771008
1753718798706,47.81149
1753718798738,47.593526
1753718798764,47.668533
1753718798811,47.544847
1753718798827,46.861327
1753718798864,46.790233
1753718798902,46.944134
1753718798934,48.525348
1753718798962,49.303531
1753718798997,49.650584
1753718799035,49.54792
1753718799063,49.224083
1753718799097,49.236818
1753718799132,48.977487
1753718799166,48.995749
1753718799199,49.225418
1753718799235,49.233634
1753718799261,48.871855
1753718799296,48.548708
1753718799334,48.043308
1753718799361,48.02739
1753718799392,48.041192
1753718799445,48.205802
1753718799465,47.731483
1753718799503,47.206733
1753718799528,46.585538
1753718799570,46.588168
1753718799602,47.40635
1753718799636,48.258804
1753718799662,48.757765
1753718799710,48.966484
1753718799739,49.001022
1753718799766,49.23338
1753718799796,49.090079
1753718799827,48.921347
1753718799871,48.961517
1753718799901,49.024968
1753718799935,48.854407
1753718799961,48.853632
1753718800009,48.651886
1753718800033,48.397118
1753718800066,47.937688
1753718800098,47.822955
1753718800132,47.319084
1753718800169,46.736938
1753718800192,46.24189
1753718800234,46.220444
1753718800269,47.276102
1753718800297,47.938815
1753718800330,48.349625
1753718800359,48.538532
1753718800399,48.393557
1753718800432,48.550238
1753718800467,48.360946
1753718800493,48.255568
1753718800534,48.325542
1753718800569,48.452939
1753718800607,48.309084
1753718800629,48.232502
1753718800662,48.010801
1753718800700,47.816822
1753718800737,47.435283
1753718800770,47.315562
1753718800798,46.457379
1753718800829,45.797264
1753718800866,45.702706
1753718800919,46.595388
1753718800938,47.65893
1753718800968,48.000423
1753718800995,48.090001
1753718801026,48.092709
1753718801070,47.989668
1753718801103,47.856015
1753718801136,47.577816
1753718801162,47.611111
1753718801208,47.720376
1753718801229,47.841496
1753718801283,47.940579
1753718801299,47.659848
1753718801333,47.811001
1753718801362,47.604047
1753718801397,47.128601
1753718801441,46.716802
1753718801466,46.100118
1753718801500,45.689178
1753718801530,46.808566
1753718801572,47.778241
1753718801590,48.149786
1753718801628,48.344065
1753718801666,48.160229
1753718801698,48.007598
1753718801729,47.622817
1753718801759,47.408277
1753718801805,47.48932
1753718801831,47.923502
1753718801860,48.174871
1753718801897,48.312287
1753718801930,47.989271
1753718801966,47.627498
1753718801999,47.102637
1753718802031,46.390042
1753718802063,45.760982
1753718802105,45.906386
1753718802134,47.080958
1753718802166,47.800604
1753718802198,47.84619
1753718802232,47.899648
1753718802273,48.10821
1753718802297,48.447522
1753718802332,48.645746
1753718802364,48.623585
1753718802398,48.601228
1753718802430,48.690402
1753718802472,48.840761
1753718802497,48.896093
1753718802546,48.799732
1753718802563,49.048861
1753718802598,48.949088
1753718802637,48.411949
1753718802665,47.482874
1753718802695,47.371513
1753718802735,47.956419
1753718802769,48.2673
1753718802801,48.486273
1753718802831,48.662068
1753718802864,48.903287
1753718802893,49.096693
1753718802938,49.295829
1753718802966,49.340985
1753718802993,49.391357
1753718803028,49.435947
1753718803065,49.590212
1753718803100,49.916315
1753718803131,49.98845
1753718803166,50.282554
1753718803197,50.478135
1753718803231,50.513285
1753718803265,50.156961
1753718803302,49.469378
1753718803328,48.881568
1753718803370,48.919407
1753718803400,48.898385
1753718803430,48.747394
1753718803464,48.740682
1753718803493,48.848026
1753718803533,48.988535
1753718803564,49.082305
1753718803598,49.061895
1753718803628,48.984017
1753718803678,49.007487
1753718803699,49.12825
1753718803737,49.312554
1753718803765,49.634281
1753718803807,49.941705
1753718803835,50.174571
1753718803860,50.417171
1753718803900,50.481585
1753718803932,50.257411
1753718803973,49.70701
1753718803991,49.52346
1753718804036,49.437386
1753718804062,49.279839
1753718804120,49.243263
1753718804137,49.294468
1753718804159,49.395921
1753718804197,49.440387
1753718804225,49.436585
1753718804268,49.389846
1753718804297,49.275067
1753718804326,49.283016
1753718804364,49.42443
1753718804409,49.633481
1753718804430,49.839016
1753718804459,50.046009
1753718804498,50.22368
1753718804530,50.194227
1753718804565,50.220841
1753718804593,49.8233
1753718804634,49.400595
1753718804670,49.163797
1753718804707,49.24008
1753718804729,49.143464
1753718804766,49.117592
1753718804797,49.207189
1753718804829,49.331825
1753718804860,49.416005
1753718804894,49.413056
1753718804934,49.394124
1753718804966,49.435856
1753718804994,49.547686
1753718805034,49.664601
1753718805055,49.739048
1753718805098,49.800826
1753718805130,49.857024
1753718805164,49.956334
1753718805198,50.097637
1753718805234,49.942239
1753718805265,49.494209
1753718805297,48.793443
1753718805324,48.745291
1753718805369,49.007943
1753718805399,49.128562
1753718805433,49.301044
1753718805465,49.451292
1753718805496,49.56557
1753718805534,49.435973
1753718805563,49.437952
1753718805598,49.301779
1753718805628,49.261636
1753718805668,48.905012
1753718805698,48.9864
1753718805725,49.138556
1753718805768,49.282521
1753718805801,49.214415
1753718805831,48.949961
1753718805863,48.580525
1753718805898,47.701456
1753718805933,47.380588
1753718805968,47.583845
1753718805998,47.969362
1753718806031,48.174923
1753718806064,48.358075
1753718806097,48.6285
1753718806138,48.848033
1753718806165,48.839439
1753718806201,48.622608
1753718806228,48.662914
1753718806267,48.848632
1753718806299,48.963489
1753718806324,48.695297
1753718806367,48.333394
1753718806398,47.979557
1753718806431,47.620974
1753718806460,47.177228
1753718806501,46.570427
1753718806534,48.080027
1753718806563,56.724516
1753718806601,70.915175
1753718806635,81.199259
1753718806668,92.317443
1753718806703,103.296506
1753718806743,96.306955
1753718806761,91.905058
1753718806803,87.495003
1753718806833,85.364241
1753718806866,83.806737
1753718806901,82.053503
1753718806930,79.652322
1753718806963,77.559079
1753718807003,75.601592
1753718807036,74.870683
1753718807061,73.928242
1753718807097,73.173888
1753718807132,71.450966
1753718807164,70.298426
1753718807195,69.428317
1753718807241,68.978333
1753718807265,68.446051
1753718807294,68.453746
1753718807329,68.538754
1753718807364,68.554281
1753718807402,68.952545
1753718807431,68.853137
1753718807465,68.80996
1753718807498,68.849869
1753718807539,68.923222
1753718807569,68.98446
1753718807602,69.004792
1753718807631,68.996217
1753718807666,68.86539
1753718807701,68.807544
1753718807724,68.69436
1753718807766,67.904485
1753718807797,67.326936
1753718807840,67.095788
1753718807866,66.917226
1753718807901,66.836802
1753718807934,66.861646
1753718807960,66.965625
1753718807998,67.118236
1753718808032,67.254832
1753718808070,67.211115
1753718808099,67.131511
1753718808136,67.108341
1753718808167,67.136804
1753718808205,67.207521
1753718808228,67.315458
1753718808265,67.426214
1753718808297,67.490563
1753718808322,67.51139
1753718808366,67.555772
1753718808395,67.616547
1753718808439,67.688715
1753718808462,67.553487
1753718808504,66.704939
1753718808528,66.384657
1753718808563,66.23297
1753718808604,66.188966
1753718808642,66.279019
1753718808664,66.428388
1753718808698,66.613695
1753718808736,66.819751
1753718808758,66.970586
1753718808800,67.005345
1753718808832,66.961276
1753718808853,66.96597
1753718808893,66.99571
1753718808925,67.062168
1753718808968,67.160854
1753718809005,67.274012
1753718809026,67.390204
1753718809059,67.513317
1753718809102,67.591729
1753718809128,67.64992
1753718809150,67.685799
1753718809202,67.651365
1753718809225,67.079903
1753718809264,66.600896
1753718809298,66.430771
1753718809330,66.392203
1753718809363,66.49818
1753718809399,66.648468
1753718809432,66.848495
1753718809465,67.046003
1753718809498,67.116322
1753718809525,67.04696
1753718809562,66.925149
1753718809591,66.885077
1753718809642,66.928092
1753718809664,67.029141
1753718809696,67.143393
1753718809730,67.250067
1753718809761,67.339039
1753718809801,67.409352
1753718809827,67.436272
1753718809870,67.46874
1753718809890,67.366721
1753718809929,66.657491
1753718809958,66.305451
1753718809998,66.12696
1753718810033,66.090834
1753718810063,66.177723
1753718810106,66.364586
1753718810130,66.615323
1753718810167,66.814426
1753718810200,66.893873
1753718810228,66.832121
1753718810257,66.769165
1753718810298,66.794341
1753718810330,66.891314
1753718810361,67.020514
1753718810394,67.14517
1753718810424,67.241063
1753718810462,67.305067
1753718810499,67.355562
1753718810533,67.42512
1753718810561,67.29284
1753718810604,66.468955
1753718810623,66.166271
1753718810666,65.984837
1753718810696,65.957715
1753718810734,66.027031
1753718810768,66.140515
1753718810796,66.293635
1753718810829,66.446344
1753718810864,66.499906
1753718810908,66.472412
1753718810929,66.448499
1753718810967,66.487913
1753718810995,66.581501
1753718811029,66.685955
1753718811063,66.789426
1753718811094,66.871724
1753718811132,66.927506
1753718811163,66.970807
1753718811207,66.99737
1753718811231,66.85468
1753718811265,66.046465
1753718811293,65.758801
1753718811337,65.559646
1753718811371,65.499456
1753718811398,65.551553
1753718811431,65.683344
1753718811459,65.864198
1753718811501,66.020918
1753718811530,66.013451
1753718811568,65.850194
1753718811595,65.617315
1753718811641,65.485218
1753718811665,65.507835
1753718811697,65.661385
1753718811756,65.848769
1753718811771,66.005658
1753718811787,66.124695
1753718811823,66.215073
1753718811865,66.283804
1753718811899,66.313225
1753718811930,66.274019
1753718811964,65.632081
1753718812001,65.079096
1753718812034,64.888196
1753718812061,64.7819
1753718812099,64.82313
1753718812133,64.924954
1753718812173,65.083086
1753718812208,65.26756
1753718812230,65.371265
1753718812253,65.336415
1753718812302,65.253999
1753718812336,65.218777
1753718812366,65.274976
1753718812395,65.398238
1753718812430,65.561449
1753718812468,65.696137
1753718812496,65.795376
1753718812532,65.875969
1753718812566,65.943782
1753718812609,66.011979
1753718812633,66.081407
1753718812665,66.154662
1753718812694,66.224487
1753718812735,66.11905
1753718812765,65.321128
1753718812799,65.094063
1753718812828,64.893307
1753718812861,64.850657
1753718812898,64.959271
1753718812930,65.134734
1753718812960,65.445042
1753718813006,65.660727
1753718813029,65.725792
1753718813061,65.630167
1753718813099,65.592361
1753718813131,65.867213
1753718813162,66.164643
1753718813196,66.51932
1753718813228,67.786112
1753718813261,68.99026
1753718813299,69.134474
1753718813339,69.116348
1753718813376,68.830311
1753718813396,68.593591
1753718813434,68.657394
1753718813459,69.068457
1753718813505,69.546397
1753718813527,69.580889
1753718813563,69.045209
1753718813594,67.958899
1753718813618,67.786086
1753718813666,67.577719
1753718813701,67.748052
1753718813727,68.739321
1753718813757,68.943066
1753718813796,69.454508
1753718813828,69.513747
1753718813871,69.486767
1753718813899,69.364234
1753718813922,69.251382
1753718813962,69.247697
1753718813997,69.367053
1753718814032,69.472926
1753718814068,69.494821
1753718814099,69.551592
1753718814124,69.577308
1753718814169,69.574867
1753718814197,69.605831
1753718814231,69.626873
1753718814271,69.582016
1753718814296,69.187332
1753718814331,68.63296
1753718814369,68.460719
1753718814399,68.374755
1753718814561,69.023431
1753718814582,69.053874
1753718814596,68.962832
1753718814643,68.901972
1753718814660,68.888404
1753718814697,68.899335
1753718814730,68.88539
1753718814767,68.912519
1753718814799,68.985976
1753718814833,69.052598
1753718814859,69.137065
1753718814893,69.210418
1753718814932,69.240561
1753718814962,69.208471
1753718815003,68.826516
1753718815023,68.382548
1753718815067,68.263153
1753718815097,68.277346
1753718815135,68.393987
1753718815168,68.545323
1753718815196,68.720506
1753718815232,68.895579
1753718815263,68.994284
1753718815303,68.906588
1753718815329,68.715102
1753718815374,68.587419
1753718815395,68.601443
1753718815432,68.726652
1753718815464,68.881152
1753718815491,69.052455
1753718815534,69.39721
1753718815564,69.876978
1753718815610,70.804296
1753718815628,71.160795
1753718815673,71.13644
1753718815691,70.09254
1753718815729,69.858085
1753718815760,69.010807
1753718815792,67.738052
1753718815831,67.118686
1753718815860,66.894563
1753718815892,66.454332
1753718815925,65.924244
1753718815965,65.629386
1753718815994,65.479905
1753718816035,65.531364
1753718816057,65.483363
1753718816090,66.416526
1753718816127,67.120749
1753718816156,67.929277
1753718816206,68.181466
1753718816222,68.315887
1753718816266,68.323563
1753718816289,67.37885
1753718816321,66.599691
1753718816351,66.430439
1753718816393,66.414267
1753718816433,66.119252
1753718816461,65.157976
1753718816498,65.262365
1753718816527,65.976243
1753718816573,65.9486
1753718816605,64.656528
1753718816622,63.51544
1753718816662,62.3826
1753718816707,61.888704
1753718816736,61.3737
1753718816762,60.883593
1753718816793,59.656163
1753718816819,58.765623
1753718816872,57.39596
1753718816890,55.899413
1753718816930,54.009564
1753718816957,53.700584
1753718817001,52.390771
1753718817024,53.202475
1753718817060,53.737036
1753718817092,54.632914
1753718817127,55.966452
1753718817164,57.735467
1753718817186,58.506051
1753718817233,58.877486
1753718817264,59.657543
1753718817295,59.715193
1753718817329,59.571618
1753718817357,59.766613
1753718817402,61.340419
1753718817427,61.343036
1753718817462,61.425205
1753718817491,61.211336
1753718817534,61.566488
1753718817565,61.653611
1753718817602,61.412626
1753718817628,61.482542
1753718817666,61.492093
1753718817696,61.457444
1753718817729,61.380569
1753718817771,61.289019
1753718817785,60.535342
1753718817828,60.054525
1753718817862,59.893385
1753718817905,60.262293
1753718817929,60.411741
1753718817961,60.673084
1753718817986,60.899133
1753718818018,61.074675
1753718818061,61.007415
1753718818092,61.001491
1753718818125,61.003828
1753718818159,61.021035
1753718818198,61.130313
1753718818229,61.268817
1753718818271,61.382587
1753718818304,61.356448
1753718818321,61.396793
1753718818363,61.470797
1753718818386,61.591736
1753718818428,62.440862
1753718818456,65.993092
1753718818496,70.151935
1753718818527,72.555258
1753718818573,74.04349
1753718818593,74.31107
1753718818621,73.217762
1753718818665,72.83175
1753718818689,72.699034
1753718818747,71.949231
1753718818756,71.747485
1753718818797,71.406376
1753718818825,70.388844
1753718818868,69.673982
1753718818897,69.034258
1753718818928,68.58628
1753718818958,68.045638
1753718818990,68.547172
1753718819030,68.790174
1753718819060,69.619307
1753718819102,69.711144
1753718819124,69.544007
1753718819163,69.339377
1753718819193,69.069395
1753718819224,68.847825
1753718819268,68.66781
1753718819289,68.173432
1753718819327,67.339364
1753718819357,66.903515
1753718819397,66.668748
1753718819428,66.592686
1753718819470,66.643617
1753718819488,66.756489
1753718819529,66.511833
1753718819559,66.654112
1753718819591,66.6638
1753718819631,66.554899
1753718819661,66.433629
1753718819692,66.298446
1753718819725,66.155606
1753718819763,65.962734
1753718819795,65.590088
1753718819834,64.973222
1753718819865,64.762173
1753718819888,64.684301
1753718819926,64.747394
1753718819957,64.864029
1753718819997,64.816685
1753718820028,64.370946
1753718820058,63.98806
1753718820092,63.829016
1753718820130,63.822766
1753718820160,63.914231
1753718820189,64.065775
1753718820230,64.178139
1753718820266,64.244722
1753718820297,64.162358
1753718820331,64.005007
1753718820369,63.877838
1753718820399,63.808912
1753718820431,63.806971
1753718820462,63.886913
1753718820493,63.969394
1753718820533,64.064323
1753718820566,64.139005
1753718820601,64.138673
1753718820629,64.025501
1753718820667,63.306753
1753718820701,62.890846
1753718820730,62.69921
1753718820764,62.627205
1753718820799,62.680909
1753718820833,62.813059
1753718820862,62.959225
1753718820898,63.110092
1753718820931,63.153491
1753718820968,63.121589
1753718820999,63.047774
1753718821033,63.00679
1753718821065,63.012682
1753718821108,63.036966
1753718821134,63.080378
1753718821157,63.117468
1753718821199,63.174767
1753718821232,63.190021
1753718821265,63.050261
1753718821299,62.309143
1753718821328,61.866314
1753718821361,61.640727
1753718821400,61.48346
1753718821432,61.416565
1753718821468,61.687446
1753718821496,62.570499
1753718821533,63.022429
1753718821573,63.549457
1753718821595,63.725304
1753718821635,63.991758
1753718821665,64.236336
1753718821706,64.507197
1753718821737,64.752733
1753718821763,64.928359
1753718821792,65.068334
1753718821830,65.146609
1753718821868,65.170216
1753718821903,65.04239
1753718821929,64.464612
1753718821958,64.095847
1753718822005,63.840741
1753718822039,63.672921
1753718822059,63.583519
1753718822101,63.535446
1753718822125,63.543317
1753718822169,63.616892
1753718822213,63.739419
1753718822233,63.808143
1753718822265,63.832486
1753718822307,63.85927
1753718822332,63.961823
1753718822364,64.08461
1753718822394,64.163054
1753718822424,64.240425
1753718822467,64.282437
1753718822497,64.302176
1753718822531,64.277547
1753718822565,63.91541
1753718822606,63.186811
1753718822633,62.976354
1753718822668,62.812375
1753718822693,62.743325
1753718822731,62.73313
1753718822778,62.767564
1753718822793,62.806594
1753718822835,62.776105
1753718822866,62.666248
1753718822896,62.52555
1753718822925,62.424013
1753718822968,62.363004
1753718823000,62.344455
1753718823030,62.333772
1753718823060,62.349371
1753718823092,62.3665
1753718823134,62.351838
1753718823159,62.272821
1753718823207,62.038308
1753718823232,61.609561
1753718823266,61.312671
1753718823295,61.090808
1753718823333,60.957767
1753718823367,60.905924
1753718823392,60.893788
1753718823434,60.907252
1753718823461,61.339957
1753718823510,61.644034
1753718823530,62.675349
1753718823565,62.915664
1753718823596,63.431012
1753718823627,63.858261
1753718823658,64.358557
1753718823700,64.774933
1753718823736,65.194116
1753718823765,65.447184
1753718823804,65.701216
1753718823825,65.746339
1753718823864,65.504697
1753718823896,65.26036
1753718823941,65.092781
1753718823964,65.017214
1753718823998,65.020189
1753718824031,65.070671
1753718824060,65.136563
1753718824102,65.23366
1753718824131,65.268973
1753718824166,65.253328
1753718824194,65.251011
1753718824237,65.29077
1753718824264,65.355256
1753718824294,65.446897
1753718824339,65.572562
1753718824356,65.685389
1753718824401,65.757791
1753718824431,65.796984
1753718824475,65.81647
1753718824498,65.649881
1753718824531,65.337932
1753718824562,65.12463
1753718824596,65.001465
1753718824630,64.981777
1753718824660,64.9839
1753718824697,65.024805
1753718824730,65.123601
1753718824778,65.200587
1753718824793,65.20159
1753718824837,65.187456
1753718824859,65.178484
1753718824897,65.204552
1753718824941,65.235991
1753718824963,65.285959
1753718824998,65.327476
1753718825023,65.414104
1753718825073,65.484593
1753718825098,65.285985
1753718825139,65.320132
1753718825168,65.368264
1753718825189,65.407301
1753718825231,65.456351
1753718825263,65.521839
1753718825297,65.461273
1753718825334,65.114864
1753718825359,64.771177
1753718825394,64.552797
1753718825528,64.664282
1753718825559,64.714152
1753718825598,64.723319
1753718825629,64.71119
1753718825666,64.696593
1753718825689,64.679256
1753718825734,64.702902
1753718825760,64.766906
1753718825797,64.849934
1753718825829,64.972715
1753718825860,65.090743
1753718825901,65.196596
1753718825929,65.316369
1753718825965,65.44958
1753718825997,65.32564
1753718826036,65.447548
1753718826065,65.561729
1753718826099,65.648923
1753718826132,65.988529
1753718826157,66.053835
1753718826200,65.931686
1753718826224,65.518545
1753718826264,65.300184
1753718826294,65.148308
1753718826344,65.097292
1753718826367,65.135619
1753718826398,65.212267
1753718826434,65.285523
1753718826463,65.309377
1753718826494,65.270822
1753718826525,65.200275
1753718826565,65.130795
1753718826610,65.083627
1753718826625,65.081635
1753718826659,65.08293
1753718826707,65.106368
1753718826743,65.115815
1753718826761,65.118647
1753718826796,65.143881
1753718826824,65.189865
1753718826867,65.251004
1753718826897,65.330868
1753718826946,65.41581
1753718826962,65.342515
1753718827001,65.052897
1753718827034,64.819061
1753718827077,64.678058
1753718827095,64.662758
1753718827130,64.727641
1753718827168,64.8308
1753718827203,64.956113
1753718827227,65.061296
1753718827261,65.083718
1753718827305,65.050658
1753718827333,65.020482
1753718827365,65.042207
1753718827399,65.108966
1753718827424,65.216583
1753718827476,65.34092
1753718827497,65.471813
1753718827530,65.577445
1753718827560,65.661983
1753718827602,65.759497
1753718827628,65.895436
1753718827665,66.025938
1753718827698,66.011419
1753718827724,65.713976
1753718827770,65.455999
1753718827796,65.25883
1753718827834,65.204298
1753718827863,65.270536
1753718827909,65.124187
1753718827930,65.493988
1753718827968,65.637003
1753718827998,65.730044
1753718828027,65.730975
1753718828068,65.673774
1753718828093,65.623819
1753718828134,65.639236
1753718828157,65.712212
1753718828202,65.818098
1753718828228,65.912148
1753718828265,65.997155
1753718828295,66.057487
1753718828331,66.124018
1753718828365,66.194376
1753718828395,66.245881
1753718828437,66.265138
1753718828459,66.105814
1753718828497,65.656183
1753718828526,65.403681
1753718828574,65.217358
1753718828597,65.15226
1753718828632,65.208257
1753718828660,65.288661
1753718828695,65.400777
1753718828732,65.544658
1753718828762,65.656248
1753718828804,65.648298
1753718828823,65.6346
1753718828867,65.724158
1753718828897,65.891008
1753718828942,66.086172
1753718828966,66.274461
1753718828991,66.414671
1753718829034,66.499242
1753718829064,66.601729
1753718829097,66.734477
1753718829133,66.855331
1753718829170,66.963633
1753718829204,67.037565
1753718829246,66.799348
1753718829265,66.205014
1753718829292,65.996595
1753718829331,65.85302
1753718829359,65.840663
1753718829409,65.890781
1753718829423,65.992148
1753718829470,66.109545
1753718829506,66.188986
1753718829532,66.198914
1753718829567,66.149161
1753718829606,66.063985
1753718829641,66.02653
1753718829668,66.063497
1753718829694,66.149213
1753718829733,66.238322
1753718829775,66.311135
1753718829791,66.350412
1753718829837,66.374299
1753718829863,66.393362
1753718829912,66.426774
1753718829939,66.427503
1753718829962,66.223432
1753718829997,65.707765
1753718830030,65.462191
1753718830078,65.269813
1753718830096,65.211167
1753718830141,65.231362
1753718830165,65.286226
1753718830196,65.357834
1753718830228,65.436572
1753718830261,65.440719
1753718830302,65.375549
1753718830325,65.322483
1753718830364,65.348323
1753718830394,65.446722
1753718830437,65.559672
1753718830467,65.660597
1753718830493,65.749302
1753718830528,65.83481
1753718830558,65.933216
1753718830600,66.023171
1753718830629,66.096863
1753718830679,65.987682
1753718830696,65.609171
1753718830735,65.409189
1753718830765,65.295712
1753718830806,65.307176
1753718830834,65.389566
1753718830865,65.516696
1753718830905,65.682986
1753718830933,65.823195
1753718830962,65.852187
1753718830996,65.828638
1753718831040,65.841249
1753718831061,65.911614
1753718831096,66.030573
1753718831131,66.194246
1753718831167,66.35148
1753718831198,66.484131
1753718831230,66.588435
1753718831266,66.691593
1753718831298,66.65003
1753718831329,66.211466
1753718831363,65.897369
1753718831405,65.696196
1753718831437,65.617458
1753718831464,65.631821
1753718831503,65.665375
1753718831527,65.731737
1753718831565,65.854198
1753718831599,65.946523
1753718831638,65.963353
1753718831664,65.906269
1753718831697,65.87343
1753718831732,65.92123
1753718831772,66.016185
1753718831794,66.116134
1753718831832,66.201453
1753718831865,66.262072
1753718831896,66.334787
1753718831939,66.416858
1753718831969,66.380159
1753718831996,66.0311
1753718832026,65.709035
1753718832070,65.507386
1753718832096,65.421461
1753718832132,65.407698
1753718832161,65.434371
1753718832196,65.484346
1753718832230,65.57837
1753718832263,65.653728
1753718832305,65.668045
1753718832324,65.663924
1753718832366,65.673221
1753718832396,65.720115
1753718832448,65.809393
1753718832464,65.921223
1753718832498,66.049004
1753718832533,66.159975
1753718832565,66.237716
1753718832606,66.293811
1753718832631,66.351623
1753718832670,66.325881
1753718832693,65.960599
1753718832738,65.427535
1753718832767,65.209454
1753718832794,65.08155
1753718832831,65.313986
1753718832864,65.34523
1753718832896,65.394983
1753718832932,65.461715
1753718832968,65.514242
1753718832997,65.537302
1753718833039,65.53152
1753718833067,65.56195
1753718833098,65.640707
1753718833131,65.766203
1753718833166,65.934394
1753718833200,66.109525
1753718833232,66.275152
1753718833261,66.438427
1753718833295,66.591605
1753718833333,66.721678
1753718833361,66.812564
1753718833397,66.890416
1753718833435,66.617602
1753718833464,66.072227
1753718833499,65.707042
1753718833528,65.484209
1753718833572,65.361825
1753718833600,65.349813
1753718833633,65.637895
1753718833666,65.719113
1753718833700,65.828241
1753718833730,65.862981
1753718833765,65.813905
1753718833807,65.751424
1753718833833,65.74731
1753718833874,65.787733
1753718833900,65.901575
1753718833939,66.041804
1753718833966,66.175828
1753718833994,66.273947
1753718834027,66.346278
1753718834058,66.418883
1753718834097,66.492347
1753718834132,66.547191
1753718834167,66.620649
1753718834191,66.668416
1753718834233,66.552699
1753718834267,66.067318
1753718834302,65.806203
1753718834328,65.607914
1753718834363,65.529886
1753718834402,65.541045
1753718834428,65.600023
1753718834466,65.704861
1753718834491,65.8116
1753718834535,65.833931
1753718834565,65.796477
1753718834611,65.768853
1753718834627,65.794842
1753718834663,65.880956
1753718834700,65.991094
1753718834738,66.103217
1753718834766,66.18297
1753718834795,66.262026
1753718834839,66.088757
1753718834855,66.161935
1753718834901,66.231857
1753718834935,66.30717
1753718834967,66.350347
1753718835000,66.239051
1753718835029,65.802805
1753718835058,65.538102
1753718835100,65.336545
1753718835140,65.259676
1753718835167,65.303537
1753718835201,65.407698
1753718835237,65.560798
1753718835262,65.746522
1753718835296,65.886464
1753718835328,65.908808
1753718835368,65.889693
1753718835398,65.906197
1753718835432,65.988854
1753718835466,66.109558
1753718835505,66.219487
1753718835534,66.32775
1753718835567,66.419046
1753718835601,66.508285
1753718835629,66.621345
1753718835664,66.752323
1753718835698,66.909459
1753718835730,67.025964
1753718835766,66.835748
1753718835801,66.128953
1753718835835,65.924811
1753718835873,65.769738
1753718835902,65.76966
1753718835927,65.852838
1753718835971,65.97067
1753718835997,66.11433
1753718836032,66.489964
1753718836064,66.52999
1753718836095,66.494248
1753718836127,66.476696
1753718836170,66.527328
1753718836202,66.645421
1753718836229,66.824211
1753718836266,67.008366
1753718836305,67.163953
1753718836335,67.288863
1753718836362,67.396526
1753718836403,67.500999
1753718836432,67.627074
1753718836482,67.748241
1753718836501,67.742739
1753718836530,67.169435
1753718836569,66.543916
1753718836595,66.356129
1753718836634,66.019505
1753718836663,66.052162
1753718836701,66.168497
1753718836735,66.316324
1753718836773,66.485101
1753718836793,66.579965
1753718836835,66.555056
1753718836866,66.727791
1753718836894,66.6888
1753718836934,66.718878
1753718836958,66.81899
1753718837003,66.934511
1753718837031,67.036016
1753718837060,67.143445
1753718837097,67.241811
1753718837143,67.345829
1753718837157,67.447659
1753718837195,67.55083
1753718837232,67.41872
1753718837268,66.485876
1753718837299,66.275392
1753718837328,66.104356
1753718837362,66.100268
1753718837400,66.194519
1753718837437,66.332255
1753718837456,66.499352
1753718837497,66.647335
1753718837533,66.694021
1753718837563,66.616645
1753718837602,66.523565
1753718837628,66.494938
1753718837662,66.543024
1753718837696,66.64852
1753718837740,66.763169
1753718837761,66.884036
1753718837794,67.001712
1753718837837,67.345028
1753718837863,67.434801
1753718837903,67.5032
1753718837937,67.437373
1753718837967,66.863124
1753718837997,66.467392
1753718838031,66.256636
1753718838066,66.158751
1753718838098,66.198556
1753718838129,66.298602
1753718838166,66.445673
1753718838203,66.639555
1753718838229,66.776724
1753718838267,66.78912
1753718838298,66.737987
1753718838332,66.718781
1753718838366,66.764074
1753718838397,66.86123
1753718838433,66.984336
1753718838460,67.091465
1753718838501,67.175431
1753718838519,67.244442
1753718838565,67.311148
1753718838592,67.337906
1753718838632,67.039395
1753718838662,66.421559
1753718838701,66.222208
1753718838734,66.081218
1753718838768,66.081537
1753718838800,66.162801
1753718838831,66.283081
1753718838871,66.446832
1753718838890,66.587523
1753718838933,66.625681
1753718838965,66.586019
1753718839008,66.550316
1753718839041,66.607999
1753718839054,66.71244
1753718839099,66.833436
1753718839130,66.955592
1753718839165,67.081524
1753718839197,67.192013
1753718839237,67.264969
1753718839256,67.271551
1753718839300,66.984473
1753718839333,66.435446
1753718839364,66.232065
1753718839400,66.089838
1753718839426,66.093353
1753718839469,66.18075
1753718839502,66.312906
1753718839533,66.465999
1753718839567,66.584385
1753718839596,66.570466
1753718839628,66.497106
1753718839663,66.460329
1753718839699,66.485589
1753718839730,66.556853
1753718839758,66.669666
1753718839795,66.791704
1753718839826,66.915735
1753718839858,67.032103
1753718839897,67.120769
1753718839928,67.180737
1753718839970,67.043145
1753718839996,66.382112
1753718840027,66.165978
1753718840063,65.749191
1753718840102,65.707745
1753718840129,65.737804
1753718840163,65.82856
1753718840193,65.978164
1753718840227,66.147612
1753718840273,66.240568
1753718840298,66.220809
1753718840327,66.180717
1753718840362,66.425296
1753718840396,66.47971
1753718840429,66.567269
1753718840463,66.675922
1753718840496,66.762655
1753718840529,66.848254
1753718840566,66.934283
1753718840600,67.010899
1753718840628,67.047058
1753718840666,66.8241
1753718840692,66.187488
1753718840737,65.985794
1753718840766,65.842727
1753718840797,65.822896
1753718840825,65.898085
1753718840871,65.748123
1753718840901,65.880377
1753718840928,66.00541
1753718840963,66.032272
1753718840993,65.964284
1753718841026,65.915097
1753718841070,65.963847
1753718841093,66.080606
1753718841126,66.200867
1753718841162,66.32452
1753718841193,66.442692
1753718841233,66.544899
1753718841266,66.886093
1753718841292,66.957864
1753718841330,67.032611
1753718841363,67.089376
1753718841404,66.959961
1753718841428,66.318576
1753718841472,66.083549
1753718841501,65.88582
1753718841534,65.830188
1753718841561,65.91218
1753718841598,66.04267
1753718841632,66.210574
1753718841664,66.398043
1753718841695,66.487308
1753718841730,66.434781
1753718841774,66.361591
1753718841799,66.346239
1753718841832,66.403994
1753718841863,66.494326
1753718841902,66.603168
1753718841936,66.713533
1753718841963,66.815305
1753718841999,66.912441
1753718842032,67.026589
1753718842069,67.146433
1753718842098,67.234103
1753718842141,67.157547
1753718842167,66.5382
1753718842200,66.206173
1753718842227,66.01013
1753718842261,65.696912
1753718842303,65.756138
1753718842330,65.87496
1753718842365,66.03821
1753718842394,66.201134
1753718842444,66.251629
1753718842463,66.449111
1753718842511,66.397171
1753718842528,66.419775
1753718842555,66.502542
1753718842602,66.6188
1753718842630,66.772661
1753718842661,66.921328
1753718842703,67.054929
1753718842736,67.20032
1753718842764,67.333655
1753718842807,67.455068
1753718842831,67.514177
1753718842863,66.893235
1753718842895,66.204773
1753718842930,66.028646
1753718842971,65.918684
1753718843000,65.946198
1753718843031,66.07573
1753718843062,66.247541
1753718843098,66.450882
1753718843128,66.606104
1753718843163,66.653644
1753718843195,66.616957
1753718843228,66.584333
1753718843265,66.62738
1753718843297,66.732375
1753718843343,66.878293
1753718843361,67.269969
1753718843407,67.364775
1753718843423,67.407353
1753718843467,67.448681
1753718843499,67.538083
1753718843528,67.707134
1753718843565,67.790109
1753718843603,67.02084
1753718843631,66.299051
1753718843663,66.091329
1753718843703,65.927968
1753718843729,65.992181
1753718843764,66.165561
1753718843790,66.394449
1753718843832,66.673227
1753718843886,66.855839
1753718843903,67.122136
1753718843924,67.504626
1753718843959,67.577582
1753718843999,67.503721
1753718844031,67.537849
1753718844061,67.729699
1753718844091,68.090385
1753718844123,68.241675
1753718844162,68.30148
1753718844191,68.533708
1753718844233,68.895331
1753718844254,69.126804
1753718844296,68.916302
1753718844327,68.231323
1753718844374,68.083327
1753718844398,68.036263
1753718844430,68.157481
1753718844463,68.399456
1753718844496,68.758521
1753718844533,69.077527
1753718844561,69.233739
1753718844608,69.23189
1753718844633,69.134441
1753718844665,69.041973
1753718844693,69.002969
1753718844730,69.024681
1753718844758,69.07834
1753718844794,69.14086
1753718844833,69.204819
1753718844865,69.254155
1753718844898,69.266734
1753718844927,69.294611
1753718844969,69.333283
1753718845002,69.283784
1753718845021,68.541989
1753718845064,67.97026
1753718845094,67.788664
1753718845134,67.7152
1753718845163,67.819719
1753718845200,68.018177
1753718845223,68.291031
1753718845270,68.501702
1753718845298,68.572159
1753718845333,68.500485
1753718845372,68.419612
1753718845395,68.407503
1753718845431,68.496715
1753718845468,68.658565
1753718845503,68.816386
1753718845532,68.952708
1753718845565,69.059753
1753718845598,69.179793
1753718845638,69.278133
1753718845673,69.272215
1753718845689,68.565075
1753718845735,67.899752
1753718845758,67.720415
1753718845802,67.606273
1753718845829,67.631475
1753718845863,67.681131
1753718845897,67.789048
1753718845934,67.957037
1753718845966,68.127214
1753718845995,68.162247
1753718846027,68.049317
1753718846062,67.977545
1753718846097,67.962806
1753718846127,68.023998
1753718846159,68.164584
1753718846193,68.344931
1753718846238,68.530375
1753718846255,68.67227
1753718846293,68.799862
1753718846337,68.855318
1753718846369,68.468649
1753718846406,67.731099
1753718846421,67.538636
1753718846461,67.364631
1753718846501,67.342411
1753718846538,67.424593
1753718846561,67.307619
1753718846590,67.477262
1753718846626,67.643598
1753718846659,67.710662
1753718846708,67.667459
1753718846730,67.623975
1753718846769,67.648422
1753718846788,67.748729
1753718846828,67.898912
1753718846866,68.062168
1753718846902,68.197762
1753718846932,68.32135
1753718846953,68.457041
1753718847000,68.824778
1753718847033,68.890286
1753718847066,68.590336
1753718847097,67.770754
1753718847132,67.535414
1753718847166,67.352958
1753718847199,67.311545
1753718847229,67.39482
1753718847261,67.519164
1753718847303,67.681196
1753718847323,67.81438
1753718847367,67.850819
1753718847396,67.562764
1753718847443,67.492972
1753718847461,67.472236
1753718847499,67.476201
1753718847532,67.518402
1753718847561,67.56682
1753718847595,67.623507
1753718847627,67.680499
1753718847674,67.958346
1753718847701,68.0111
1753718847734,68.045853
1753718847766,67.779478
1753718847808,67.059232
1753718847830,66.85136
1753718847859,66.699738
1753718847900,66.706339
1753718847933,66.802505
1753718847965,66.94595
1753718847996,67.130613
1753718848035,67.266109
1753718848065,67.22325
1753718848111,67.083405
1753718848135,66.987891
1753718848161,66.962317
1753718848194,67.008965
1753718848227,67.081251
1753718848268,67.165789
1753718848301,67.230229
1753718848336,67.272925
1753718848367,67.309136
1753718848399,67.315959
1753718848437,66.961263
1753718848461,66.349026
1753718848498,66.177482
1753718848534,66.101876
1753718848568,66.149734
1753718848593,66.268582
1753718848634,66.411357
1753718848668,66.567582
1753718848709,66.689106
1753718848722,66.6941
1753718848766,66.643878
1753718848800,66.654386
1753718848830,66.763853
1753718848866,66.915605
1753718848889,67.113119
1753718848935,67.303107
1753718848968,67.472744
1753718849005,67.628005
1753718849029,67.716639
1753718849075,67.458818
1753718849097,66.712062
1753718849132,66.529951
1753718849166,66.375569
1753718849197,66.317326
1753718849228,66.352079
1753718849264,66.438453
1753718849302,66.588083
1753718849324,66.739862
1753718849370,66.800279
1753718849399,66.757108
1753718849426,66.720695
1753718849470,66.746164
1753718849500,66.836073
1753718849534,66.954778
1753718849565,67.077689
1753718849599,67.21784
1753718849623,67.362034
1753718849668,67.477288
1753718849697,67.529059
1753718849731,67.195138
1753718849765,66.457086
1753718849801,66.273986
1753718849833,66.155411
1753718849861,66.1345
1753718849900,66.2045
1753718849928,66.314423
1753718849960,66.488558
1753718849989,66.66406
1753718850034,66.747609
1753718850066,66.740467
1753718850095,66.691749
1753718850132,66.709074
1753718850161,66.820995
1753718850202,66.963828
1753718850224,67.114981
1753718850265,67.274103
1753718850298,67.180424
1753718850341,67.295972
1753718850365,67.36206
1753718850389,67.432913
1753718850432,67.408968
1753718850469,66.793033
1753718850507,66.060749
1753718850527,65.891653
1753718850566,65.798456
1753718850597,65.824224
1753718850641,65.920898
1753718850666,66.075586
1753718850698,66.288303
1753718850731,66.469541
1753718850763,66.513128
1753718850801,66.684939
1753718850827,66.647237
1753718850865,66.690141
1753718850899,66.799745
1753718850942,66.964844
1753718850964,67.126713
1753718850993,67.264474
1753718851030,67.368036
1753718851059,67.426891
1753718851101,67.465849
1753718851134,67.519541
1753718851169,67.573051
1753718851190,67.388525
1753718851229,67.337313
1753718851261,66.653103
1753718851310,66.22157
1753718851334,66.039877
1753718851362,65.954173
1753718851397,65.981894
1753718851434,66.082761
1753718851467,66.209344
1753718851503,66.356662
1753718851531,66.433903
1753718851563,66.36928
1753718851610,66.254917
1753718851627,66.178725
1753718851665,66.199702
1753718851703,66.297072
1753718851725,66.430218
1753718851765,66.547438
1753718851794,66.655167
1753718851827,66.751912
1753718851856,66.875676
1753718851902,67.00931
1753718851932,67.130743
1753718851957,67.126602
1753718851997,66.546019
1753718852025,66.047624
1753718852068,65.871106
1753718852099,65.848703
1753718852132,65.965742
1753718852168,66.172521
1753718852202,66.462288
1753718852231,66.701046
1753718852265,66.815819
1753718852293,66.755558
1753718852328,66.667595
1753718852367,66.667693
1753718852402,66.766203
1753718852429,66.951146
1753718852464,67.168679
1753718852504,67.34831
1753718852532,67.498988
1753718852554,67.637908
1753718852595,67.763136
1753718852628,67.755324
1753718852668,67.209096
1753718852699,66.421956
1753718852731,66.240093
1753718852764,66.109499
1753718852803,66.116921
1753718852838,66.226395
1753718852870,66.372431
1753718852895,66.581247
1753718852931,66.783085
1753718852965,66.866249
1753718852996,66.578174
1753718853029,66.5268
1753718853063,66.550759
1753718853100,66.657934
1753718853136,66.808996
1753718853173,66.994329
1753718853195,67.166954
1753718853221,67.327151
1753718853270,67.476481
1753718853298,67.522165
1753718853328,67.017142
1753718853362,66.184194
1753718853402,65.979974
1753718853429,65.806535
1753718853465,65.789966
1753718853494,66.293693
1753718853534,66.72686
1753718853566,66.849986
1753718853607,66.774966
1753718853623,66.312762
1753718853666,66.132195
1753718853705,66.129806
1753718853720,66.41708
1753718853765,66.768553
1753718853795,66.931093
1753718853826,67.043073
1753718853856,67.181427
1753718853887,67.437477
1753718853928,67.638546
1753718853961,67.813319
1753718854000,67.972441
1753718854029,67.972233
1753718854060,67.503903
1753718854090,67.330093
1753718854133,67.284826
1753718854161,67.417724
1753718854193,67.769041
1753718854227,68.224031
1753718854260,68.491156
1753718854307,68.733351
1753718854332,68.828391
1753718854369,68.759191
1753718854401,68.671404
1753718854435,68.594984
1753718854470,68.597374
1753718854498,68.698579
1753718854528,68.789803
1753718854567,68.845162
1753718854604,68.914042
1753718854632,68.983457
1753718854661,69.04043
1753718854698,69.050782
1753718854746,68.874511
1753718854764,67.719269
1753718854786,67.039864
1753718854832,66.854791
1753718854864,66.734445
1753718854891,66.777889
1753718854929,66.901731
1753718854967,67.060586
1753718854998,67.13948
1753718855029,67.047728
1753718855064,66.852792
1753718855096,66.717114
1753718855133,66.699126
1753718855165,66.764595
1753718855195,66.866835
1753718855226,66.937786
1753718855268,67.021517
1753718855294,67.111361
1753718855332,67.205229
1753718855362,67.194793
1753718855398,66.478304
1753718855437,65.780415
1753718855464,65.614568
1753718855499,65.584216
1753718855530,65.660278
1753718855575,65.809465
1753718855594,66.00041
1753718855635,66.183894
1753718855663,66.230613
1753718855712,66.099708
1753718855737,65.943769
1753718855754,65.907441
1753718855798,66.025091
1753718855830,66.297391
1753718855860,66.556696
1753718855894,66.818143
1753718855936,67.04058
1753718855975,67.154858
1753718855996,66.807622
1753718856027,66.373446
1753718856062,66.214044
1753718856090,66.191909
1753718856124,66.280223
1753718856168,66.478773
1753718856194,66.744666
1753718856241,67.002109
1753718856260,67.188615
1753718856300,67.236955
1753718856329,67.194585
1753718856362,67.196616
1753718856401,67.342587
1753718856419,67.605818
1753718856460,67.853046
1753718856498,68.065476
1753718856536,68.243576
1753718856565,68.343297
1753718856596,68.051706
1753718856633,67.155183
1753718856656,66.990898
1753718856713,66.903209
1753718856728,66.923151
1753718856766,66.999095
1753718856799,67.074362
1753718856847,67.20605
1753718856867,67.327509
1753718856912,67.314878
1753718856930,67.229442
1753718856977,67.16989
1753718856995,67.209233
1753718857031,67.319735
1753718857067,67.463467
1753718857092,67.646573
1753718857136,67.81884
1753718857168,67.999746
1753718857199,68.131681
1753718857223,68.24077
1753718857269,68.369436
1753718857298,68.341767
1753718857329,67.379573
1753718857370,66.894238
1753718857396,66.738735
1753718857431,66.702179
1753718857462,66.741626
1753718857508,66.845722
1753718857522,66.969297
1753718857566,67.148647
1753718857597,67.30034
1753718857629,67.338043
1753718857671,67.254077
1753718857701,67.154148
1753718857728,67.125209
1753718857760,67.204624
1753718857806,67.313075
1753718857834,67.394671
1753718857865,67.445979
1753718857898,67.498551
1753718857930,67.544724
1753718857967,67.562699
1753718857999,67.552172
1753718858042,67.563773
1753718858061,67.605994
1753718858097,67.648403
1753718858131,67.705193
1753718858168,67.731841
1753718858204,67.26797
1753718858225,66.315608
1753718858262,66.128894
1753718858295,65.956497
1753718858337,65.913528
1753718858366,65.9864
1753718858397,66.087605
1753718858433,66.214357
1753718858467,66.363303
1753718858499,66.436318
1753718858533,66.633748
1753718858560,66.56962
1753718858593,66.546918
1753718858632,66.590453
1753718858661,66.677941
1753718858707,66.786249
1753718858726,66.915579
1753718858765,67.025677
1753718858794,67.091882
1753718858841,67.135652
1753718858865,67.189461
1753718858898,67.24756
1753718858941,67.254982
1753718858965,66.878489
1753718858993,66.391943
1753718859028,66.177032
1753718859069,66.042481
1753718859100,66.043008
1753718859148,66.077592
1753718859164,66.11877
1753718859202,66.235073
1753718859232,66.098269
1753718859261,66.088725
1753718859306,65.984557
1753718859323,65.908847
1753718859365,65.907656
1753718859394,65.978893
1753718859441,66.081081
1753718859468,66.175782
1753718859498,66.468415
1753718859533,66.499574
1753718859563,66.537992
1753718859598,66.604711
1753718859634,66.656274
1753718859673,66.659802
1753718859690,66.406109
1753718859736,66.057429
1753718859765,65.841151
1753718859800,65.726782
1753718859824,65.735233
1753718859862,65.808977
1753718859900,65.890898
1753718859933,66.000618
1753718859961,66.078288
1753718859994,66.054564
1753718860037,66.012669
1753718860066,66.010495
1753718860099,66.059265
1753718860127,66.156485
1753718860159,66.270913
1753718860209,66.392965
1753718860232,66.497992
1753718860260,66.572068
1753718860296,66.642153
1753718860335,66.719595
1753718860369,66.780904
1753718860414,66.760493
1753718860433,66.412268
1753718860460,66.17241
1753718860497,65.994043
1753718860529,65.926862
1753718860574,65.971901
1753718860598,66.064486
1753718860628,66.17879
1753718860662,66.327776
1753718860702,66.420289
1753718860732,66.152371
1753718860766,66.062767
1753718860796,66.038223
1753718860828,66.129259
1753718860862,66.274377
1753718860894,66.415673
1753718860934,66.551462
1753718860961,66.656241
1753718861003,66.739875
1753718861045,66.810552
1753718861063,66.874355
1753718861104,66.927324
1753718861133,66.973262
1753718861167,66.817883
1753718861197,66.13017
1753718861238,65.926647
1753718861265,65.732576
1753718861301,65.672954
1753718861328,65.701697
1753718861371,65.777792
1753718861407,65.867271
1753718861429,65.964707
1753718861462,65.988555
1753718861498,65.920761
1753718861527,66.099805
1753718861562,66.067155
1753718861602,66.108119
1753718861632,66.180542
1753718861671,66.260692
1753718861710,66.347626
1753718861729,66.42361
1753718861763,66.49807
1753718861796,66.570661
1753718861829,66.617406
1753718861866,66.683767
1753718861905,66.709243
1753718861937,66.205145
1753718861969,65.846028
1753718861998,65.627478
1753718862026,65.502588
1753718862065,65.500791
1753718862094,65.575232
1753718862135,65.909746
1753718862162,66.022546
1753718862196,66.101088
1753718862228,66.09726
1753718862266,66.051485
1753718862302,66.037409
1753718862329,66.065261
1753718862362,66.141466
1753718862400,66.241206
1753718862427,66.33525
1753718862461,66.421702
1753718862500,66.47415
1753718862529,66.288133
1753718862568,66.358642
1753718862601,66.448974
1753718862630,66.53669
1753718862661,66.495075
1753718862693,66.040189
1753718862731,65.758644
1753718862764,65.544014
1753718862797,65.458056
1753718862825,65.485771
1753718862871,65.558474
1753718862895,65.658702
1753718862939,65.99735
1753718862969,66.030612
1753718862994,65.953027
1753718863029,65.87274
1753718863058,65.839628
1753718863105,65.893346
1753718863134,65.997448
1753718863167,66.090235
1753718863196,66.158764
1753718863236,66.235724
1753718863266,66.322437
1753718863301,66.406728
1753718863328,66.476474
1753718863364,66.555681
1753718863404,66.528955
1753718863430,66.142462
1753718863463,65.880357
1753718863498,65.685434
1753718863535,65.632927
1753718863565,65.71854
1753718863598,65.839022
1753718863634,65.97918
1753718863663,66.116121
1753718863700,66.15795
1753718863726,66.110489
1753718863769,66.071309
1753718863797,66.088113
1753718863830,66.157553
1753718863863,66.285497
1753718863894,66.427119
1753718863940,66.554144
1753718863968,66.645655
1753718863998,66.718709
1753718864032,66.77315
1753718864069,66.869849
1753718864098,66.919759
1753718864132,66.665467
1753718864163,66.115626
1753718864208,65.918326
1753718864236,65.788091
1753718864263,65.759399
1753718864298,65.819745
1753718864336,65.918971
1753718864364,66.051875
1753718864390,66.190548
1753718864436,66.231401
1753718864467,66.17868
1753718864508,66.13769
1753718864528,66.159623
1753718864564,66.240496
1753718864607,66.33008
1753718864627,66.445569
1753718864667,66.561879
1753718864698,66.653142
1753718864739,66.49904
1753718864772,66.598396
1753718864798,66.686183
1753718864833,66.682947
1753718864860,66.307092
1753718864904,65.921321
1753718864930,65.713384
1753718864967,65.600251
1753718865002,65.595238
1753718865029,65.660362
1753718865057,65.763045
1753718865104,65.891764
1753718865131,65.956692
1753718865167,65.945898
1753718865205,65.907096
1753718865230,65.870325
1753718865269,65.86759
1753718865296,65.910117
1753718865337,66.005202
1753718865364,66.124526
1753718865402,66.236746
1753718865432,66.326643
1753718865464,66.400901
1753718865499,66.469918
1753718865526,66.484482
1753718865568,66.244344
1753718865598,65.849713
1753718865639,65.635069
1753718865662,65.525511
1753718865697,65.561371
1753718865726,65.662023
1753718865773,65.779413
1753718865799,65.901275
1753718865831,65.984004
1753718865885,65.995449
1753718865900,65.955436
1753718865927,65.920846
1753718865962,65.961269
1753718866004,66.066765
1753718866031,66.186902
1753718866073,66.290926
1753718866098,66.368726
1753718866133,66.451403
1753718866169,66.539489
1753718866199,66.630538
1753718866238,66.603871
1753718866264,66.177696
1753718866300,65.799354
1753718866337,65.569802
1753718866367,65.434332
1753718866399,65.421572
1753718866428,65.49389
1753718866467,65.575186
1753718866502,65.682524
1753718866529,65.746222
1753718866557,65.715291
1753718866604,65.662713
1753718866633,65.64589
1753718866679,65.679822
1753718866697,65.760897
1753718866735,65.874849
1753718866768,65.997969
1753718866800,66.128998
1753718866829,66.264181
1753718866865,66.412711
1753718866900,66.569222
1753718866925,66.776802
1753718866973,66.328726
1753718867005,66.075977
1753718867029,65.925332
1753718867066,65.951738
1753718867094,66.06362
1753718867133,66.209122
1753718867164,66.37398
1753718867198,66.506846
1753718867228,66.517601
1753718867274,66.435706
1753718867307,66.401728
1753718867332,66.468349
1753718867368,66.606078
1753718867393,66.75675
1753718867437,66.909628
1753718867459,67.038627
1753718867507,67.157215
1753718867534,67.278309
1753718867560,67.314637
1753718867597,66.944036
1753718867636,66.437164
1753718867668,66.270835
1753718867697,66.214227
1753718867726,66.271187
1753718867762,66.396773
1753718867797,66.543395
1753718867835,66.698781
1753718867871,66.774686
1753718867899,66.733013
1753718867931,66.657426
1753718867963,66.648923
1753718868009,66.73369
1753718868032,66.864062
1753718868062,67.01847
1753718868098,67.170568
1753718868127,67.339045
1753718868172,67.508714
1753718868201,67.647452
1753718868234,67.53876
1753718868268,66.833775
1753718868295,66.549437
1753718868335,66.374364
1753718868362,66.354403
1753718868402,66.408069
1753718868432,66.502334
1753718868469,66.618448
1753718868495,66.757375
1753718868542,66.831151
1753718868569,66.804061
1753718868603,66.744803
1753718868635,66.721046
1753718868665,66.743169
1753718868700,66.793703
1753718868729,66.857323
1753718868769,66.929492
1753718868797,67.031843
1753718868839,67.144682
1753718868866,67.256512
1753718868895,67.344019
1753718868935,67.174194
1753718868961,66.296851
1753718869002,66.095652
1753718869033,65.948958
1753718869066,65.917389
1753718869103,65.959596
1753718869136,66.031146
1753718869165,66.374501
1753718869202,66.479248
1753718869231,66.528747
1753718869262,66.514515
1753718869305,66.484372
1753718869328,66.503441
1753718869364,66.566866
1753718869398,66.649854
1753718869441,66.738696
1753718869466,66.836457
1753718869497,66.9247
1753718869534,66.980443
1753718869566,66.997572
1753718869604,67.04375
1753718869630,67.116394
1753718869666,67.145847
1753718869698,66.841659
1753718869737,66.291981
1753718869757,66.083594
1753718869802,65.939563
1753718869830,65.930312
1753718869868,66.004811
1753718869897,66.105092
1753718869932,66.242228
1753718869964,66.112742
1753718869999,66.12047
1753718870039,66.066192
1753718870069,66.040821
1753718870103,66.073438
1753718870136,66.136095
1753718870168,66.473584
1753718870197,66.569275
1753718870231,66.637511
1753718870273,66.689087
1753718870298,66.745408
1753718870339,66.803143
1753718870359,66.84011
1753718870401,66.849205
1753718870432,66.871497
1753718870484,66.89692
1753718870500,66.69576
1753718870525,66.121374
1753718870567,65.929615
1753718870595,65.81634
1753718870633,65.821574
1753718870664,65.91108
1753718870702,66.046055
1753718870730,66.189012
1753718870775,66.304807
1753718870795,66.302795
1753718870831,66.241017
1753718870867,66.21769
1753718870890,66.311851
1753718870932,66.475394
1753718870962,66.658214
1753718871006,66.835702
1753718871037,66.993509
1753718871058,67.132983
1753718871098,67.251948
1753718871126,67.364254
1753718871166,67.45986
1753718871205,67.437106
1753718871241,66.884934
1753718871263,66.554912
1753718871303,66.379768
1753718871329,66.341011
1753718871370,66.405686
1753718871400,66.51945
1753718871431,66.686014
1753718871466,66.869791
1753718871492,66.945149
1753718871530,66.882714
1753718871578,66.789634
1753718871600,66.762564
1753718871631,66.835793
1753718871665,66.955683
1753718871697,67.102696
1753718871739,67.208094
1753718871766,67.268537
1753718871801,67.331226
1753718871831,67.403857
1753718871867,67.476982
1753718871908,67.463245
1753718871923,67.024115
1753718871963,66.715571
1753718872001,66.537959
1753718872045,66.476468
1753718872067,66.50723
1753718872095,66.585141
1753718872133,66.679594
1753718872166,66.792408
1753718872198,66.874237
1753718872231,66.868319
1753718872273,66.823039
1753718872302,66.806971
1753718872338,66.856119
1753718872365,66.930266
1753718872397,67.018008
1753718872430,67.117006
1753718872463,67.21463
1753718872501,67.282476
1753718872530,67.329989
1753718872564,67.140281
1753718872591,67.146244
1753718872637,66.876907
1753718872669,66.494508
1753718872692,66.271382
1753718872734,66.134649
1753718872764,66.13603
1753718872946,66.636788
1753718872964,66.583213
1753718873006,66.551423
1753718873024,66.591573
1753718873057,66.69018
1753718873097,66.793065
1753718873135,66.891334
1753718873171,66.997982
1753718873197,67.084447
1753718873229,67.154747
1753718873264,67.253166
1753718873310,67.364143
1753718873333,67.448519
1753718873366,67.086322
1753718873397,66.58391
1753718873431,66.400484
1753718873468,66.290529
1753718873507,66.320119
1753718873530,66.429528
1753718873564,66.555427
1753718873600,66.69951
1753718873630,66.820865
1753718873666,67.101387
1753718873709,67.059102
1753718873733,67.019642
1753718873764,67.022715
1753718873799,67.071895
1753718873830,67.152813
1753718873865,67.234311
1753718873902,67.294123
1753718873933,67.339664
1753718873964,67.377535
1753718874009,67.433584
1753718874026,67.450999
1753718874068,67.232189
1753718874093,66.786737
1753718874132,66.578584
1753718874166,66.472458
1753718874208,66.481885
1753718874231,66.564548
1753718874268,66.651951
1753718874299,66.750851
1753718874334,66.812616
1753718874363,66.753944
1753718874399,66.661189
1753718874434,66.597283
1753718874462,66.572562
1753718874503,66.610089
1753718874528,66.709679
1753718874575,66.804628
1753718874593,66.929114
1753718874633,66.910195
1753718874666,66.669275
1753718874695,66.330126
1753718874736,65.736483
1753718874767,65.153139
1753718874797,64.902454
1753718874829,64.773495
1753718874881,64.939362
1753718874894,65.143061
1753718874923,65.293107
1753718874965,65.44445
1753718874993,65.594105
1753718875026,65.765565
1753718875056,66.030098
1753718875098,66.385458
1753718875129,66.652042
1753718875172,67.058112
1753718875199,67.349657
1753718875228,67.619672
1753718875258,67.859446
1753718875289,68.049538
1753718875335,68.207892
1753718875364,68.166896
1753718875407,67.839745
1753718875426,67.625987
1753718875467,67.478577
1753718875496,67.415387
1753718875534,67.384338
1753718875564,67.357763
1753718875596,67.391174
1753718875632,67.436377
1753718875668,67.428414
1753718875712,67.371031
1753718875732,67.313407
1753718875769,67.305113
1753718875803,67.331024
1753718875843,67.367183
1753718875867,67.412027
1753718875902,67.474554
1753718875927,67.52141
1753718875963,67.561866
1753718876002,67.580108
1753718876033,67.515882
1753718876062,67.296506
1753718876096,67.01321
1753718876132,66.82011
1753718876163,66.722609
1753718876196,66.702387
1753718876226,66.719204
1753718876258,66.77061
1753718876299,66.852258
1753718876331,66.910318
1753718876375,66.925494
1753718876391,66.915833
1753718876432,66.913242
1753718876466,66.942604
1753718876501,67.003008
1753718876529,67.071947
1753718876563,67.133634
1753718876605,67.210835
1753718876636,67.292632
1753718876670,67.100372
1753718876692,67.11099
1753718876736,67.12269
1753718876765,67.161622
1753718876800,67.169506
1753718876835,66.970058
1753718876863,66.644809
1753718876904,66.420263
1753718876922,66.289956
1753718876966,66.255444
1753718876996,66.267352
1753718877048,66.292222
1753718877086,66.357157
1753718877102,66.43527
1753718877136,66.439508
1753718877158,66.648357
1753718877197,66.629015
1753718877232,66.650154
1753718877271,66.720356
1753718877291,66.799816
1753718877336,66.851132
1753718877361,66.895709
1753718877409,66.951276
1753718877435,67.010762
1753718877460,67.070359
1753718877495,67.142416
1753718877529,67.20379
1753718877573,67.00332
1753718877604,67.031283
1753718877636,67.05198
1753718877660,67.068803
1753718877703,66.903561
1753718877737,66.587575
1753718877762,66.371812
1753718877793,66.442106
1753718877835,66.380204
1753718877871,66.376558
1753718877898,66.393167
1753718877931,66.42818
1753718877958,66.445556
1753718878004,66.420081
1753718878032,66.373134
1753718878061,66.329703
1753718878096,66.305979
1753718878129,66.334058
1753718878171,66.39801
1753718878194,66.435843
1753718878231,66.473128
1753718878267,66.512588
1753718878303,66.536527
1753718878334,66.553675
1753718878365,66.594138
1753718878398,66.669497
1753718878432,66.643845
1753718878466,66.473519
1753718878499,66.265431
1753718878547,66.12418
1753718878563,66.098965
1753718878607,66.15297
1753718878625,66.252879
1753718878663,66.376734
1753718878697,66.471364
1753718878738,66.501494
1753718878761,66.465511
1753718878799,66.426813
1753718878834,66.440882
1753718878867,66.51165
1753718878906,66.604197
1753718878935,66.694992
1753718878965,66.778579
1753718878994,66.839706
1753718879034,66.872284
1753718879066,66.940039
1753718879102,67.025944
