time,ppg
1753555695543,92.921516
1753555695573,82.972324
1753555695611,79.486227
1753555695631,78.151909
1753555695664,77.610759
1753555695696,77.294618
1753555695729,76.963919
1753555695767,76.98554
1753555695801,77.015814
1753555695834,77.041231
1753555695864,77.154884
1753555695901,77.234826
1753555695931,77.306245
1753555695968,77.293055
1753555696001,77.3376
1753555696030,77.407444
1753555696069,77.420777
1753555696101,77.350803
1753555696134,77.270438
1753555696163,77.22728
1753555696200,77.154669
1753555696229,77.075385
1753555696275,76.97095
1753555696302,76.870618
1753555696336,76.823697
1753555696364,76.801164
1753555696401,77.04875
1753555696429,77.069792
1753555696465,78.007917
1753555696497,77.77104
1753555696533,77.790383
1753555696563,77.800454
1753555696599,77.820806
1753555696630,77.512809
1753555696665,77.527556
1753555696701,77.55195
1753555696734,77.55473
1753555696763,77.567497
1753555696801,77.577022
1753555696835,77.539066
1753555696862,77.47305
1753555696899,77.408128
1753555696942,77.389475
1753555696964,77.397848
1753555696997,77.394254
1753555697030,77.399833
1753555697065,77.410777
1753555697098,77.420335
1753555697137,77.426572
1753555697166,77.42096
1753555697199,77.418414
1753555697230,77.427529
1753555697266,77.443089
1753555697295,77.446253
1753555697332,77.460485
1753555697364,77.474476
1753555697400,77.482829
1753555697429,77.509092
1753555697466,77.527653
1753555697500,77.544932
1753555697532,77.559073
1753555697575,77.568623
1753555697600,77.576098
1753555697629,77.591137
1753555697664,77.612856
1753555697697,77.616534
1753555697729,77.639171
1753555697765,77.635811
1753555697800,77.564678
1753555697827,77.490921
1753555697862,77.454645
1753555697901,77.452477
1753555697927,77.448655
1753555697962,77.449144
1753555697995,77.456038
1753555698030,77.466598
1753555698066,77.476266
1753555698096,77.471149
1753555698129,77.476416
1753555698163,77.484261
1753555698197,77.495557
1753555698232,77.515583
1753555698265,77.520726
1753555698297,77.536175
1753555698333,77.549984
1753555698365,77.547647
1753555698397,77.565648
1753555698432,77.584613
1753555698461,77.58307
1753555698497,77.597055
1753555698533,77.61072
1753555698565,77.610922
1753555698599,77.631052
1753555698630,77.643539
1753555698663,77.649483
1753555698697,77.648767
1753555698731,77.593754
1753555698765,77.490915
1753555698795,77.452841
1753555698831,77.456911
1753555698865,77.462972
1753555698898,78.042598
1753555698929,78.050814
1753555698964,78.056081
1753555698998,77.764211
1753555699029,77.801971
1753555699064,77.791906
1753555699099,77.761548
1753555699129,77.773111
1753555699164,77.774048
1753555699198,77.78132
1753555699233,77.788664
1753555699265,77.795526
1753555699297,77.806242
1753555699328,77.811731
1753555699363,77.814634
1753555699397,77.831151
1753555699431,77.836054
1753555699464,77.83664
1753555699493,77.851646
1753555699528,77.868437
1753555699563,77.858411
1753555699598,77.80201
1753555699629,77.720076
1753555699662,77.674041
1753555699696,77.667752
1753555699730,77.677387
1753555699764,77.676827
1753555699797,77.693676
1753555699834,77.704503
1753555699868,77.696079
1753555699898,77.707589
1753555699927,77.710206
1753555699960,77.711001
1753555699992,77.726489
1753555700030,77.729015
1753555700064,77.741196
1753555700097,77.756945
1753555700131,77.768325
1753555700163,77.765096
1753555700198,77.77578
1753555700229,77.773013
1753555700263,77.781034
1753555700297,77.793879
1753555700331,77.800819
1753555700362,77.815734
1753555700396,77.820988
1753555700430,77.833241
1753555700462,77.80884
1753555700491,77.7202
1753555700526,77.652198
1753555700560,77.62878
1753555700596,77.624457
1753555700630,77.635037
1753555700661,77.645479
1753555700694,77.650766
1753555700732,77.663917
1753555700763,77.677322
1753555700797,77.665844
1753555700826,77.663631
1753555700860,77.671183
1753555700895,77.677934
1753555700930,77.689165
1753555700962,77.705382
1753555700996,77.697837
1753555701030,77.709926
1753555701066,77.730285
1753555701096,77.732485
1753555701129,77.736717
1753555701162,77.742212
1753555701203,77.740747
1753555701229,77.739569
1753555701262,77.746724
1753555701295,77.759022
1753555701328,77.755773
1753555701362,77.705584
1753555701394,77.617673
1753555701428,77.593135
1753555701463,77.599737
1753555701495,77.611254
1753555701527,77.625304
1753555701561,77.633852
1753555701595,77.644711
1753555701628,77.64408
1753555701660,77.641267
1753555701694,77.647537
1753555701727,77.648513
1753555701761,77.660642
1753555701800,77.673494
1753555701826,77.689712
1753555701858,77.705408
1753555701897,77.718911
1753555701930,77.716398
1753555701960,77.729998
1753555701998,77.732804
1753555702027,77.744009
1753555702063,77.75561
1753555702094,77.77397
1753555702126,77.744634
1753555702160,77.679126
1753555702193,77.617758
1753555702226,77.591729
1753555702257,77.599978
1753555702295,77.613552
1753555702327,77.609561
1753555702362,77.626182
1753555702394,77.641964
1753555702427,77.633064
1753555702460,77.629112
1753555702496,77.647537
1753555702532,77.652843
1753555702567,77.645883
1753555702594,77.670421
1753555702631,77.685844
1753555702660,77.681808
1753555702693,77.707205
1753555702727,77.722973
1753555702759,77.732349
1753555702795,77.736014
1753555702833,77.736457
1753555702869,77.746951
1753555702900,77.771782
1753555702927,77.786848
1753555702965,77.805064
1753555702995,77.80313
1753555703028,77.739523
1753555703063,77.665525
1753555703095,77.638617
1753555703129,77.643696
1753555703165,77.644724
1753555703201,77.657036
1753555703229,77.672752
1753555703260,77.669204
1753555703294,77.682329
1753555703328,77.696554
1753555703360,77.703312
1753555703395,77.706495
1753555703427,77.706274
1753555703463,77.714868
1753555703493,77.731138
1753555703527,77.734197
1753555703559,77.734738
1753555703597,77.73632
1753555703623,77.736678
1753555703656,77.738898
1753555703689,77.758032
1753555703730,77.760903
1753555703759,77.765428
1753555703793,77.771177
1753555703823,77.782433
1753555703859,77.774979
1753555703890,77.756587
1753555703927,77.682133
1753555703963,77.615694
1753555703992,77.60779
1753555704028,77.621274
1753555704061,77.636925
1753555704093,77.647615
1753555704129,77.665206
1753555704161,77.664744
1753555704190,77.676261
1753555704226,77.662888
1753555704259,77.655082
1753555704289,77.660688
1753555704326,77.658429
1753555704358,77.653728
1753555704390,77.670278
1753555704425,77.678377
1753555704460,77.681346
1753555704489,77.692478
1753555704522,77.685577
1753555704555,77.694529
1753555704591,77.698963
1753555704623,77.694946
1753555704657,77.681586
1753555704688,77.66158
1753555704729,77.575362
1753555704761,77.516325
1753555704792,77.501833
1753555704826,77.516787
1753555704860,77.521787
1753555704891,77.538122
1753555704923,77.544515
1753555704957,77.543324
1753555704993,77.545772
1753555705022,77.538545
1753555705056,77.541729
1753555705091,77.545231
1753555705124,77.552556
1753555705155,77.570928
1753555705189,77.581638
1753555705228,77.596924
1753555705259,77.606443
1753555705294,77.627693
1753555705325,77.653468
1753555705355,77.674907
1753555705396,77.674562
1753555705427,77.688527
1753555705459,77.712036
1753555705489,77.69673
1753555705526,77.635629
1753555705557,77.550733
1753555705591,77.48501
1753555705623,77.456546
1753555705656,77.486305
1753555705688,77.525615
1753555705721,77.645916
1753555705754,77.763384
1753555705791,77.868326
1753555705824,78.069037
1753555705856,77.994766
1753555705888,78.35135
1753555705930,77.274129
1753555705959,77.085541
1753555705990,76.745337
1753555706024,76.639008
1753555706055,76.959746
1753555706088,76.940293
1753555706126,77.203556
1753555706156,77.112162
1753555706191,77.086459
1753555706224,77.020593
1753555706255,76.971777
1753555706291,77.296669
1753555706325,77.230561
1753555706355,77.445856
1753555706391,77.341812
1753555706424,77.210613
1753555706455,77.179741
1753555706492,77.434007
1753555706525,77.414195
1753555706556,77.727147
1753555706585,77.739321
1753555706618,78.054525
1753555706656,78.087116
1753555706687,78.104298
1753555706721,78.10392
1753555706755,78.087357
1753555706791,78.110092
1753555706824,77.824914
1753555706854,77.82953
1753555706891,77.838788
1753555706924,77.819445
1753555706955,77.790168
1753555706991,77.803065
1753555707024,77.796535
1753555707055,77.80177
1753555707086,77.813208
1753555707120,77.824543
1753555707153,77.834758
1753555707188,77.784308
1753555707222,77.722101
1753555707255,77.681639
1753555707287,77.962402
1753555707319,78.230685
1753555707358,78.214878
1753555707391,78.214402
1753555707422,78.249852
1753555707455,78.275926
1753555707488,78.269585
1753555707521,78.261968
1753555707554,78.281219
1753555707588,78.286812
1753555707617,78.294227
1753555707658,78.300354
1753555707690,78.301923
1753555707721,78.324039
1753555707754,78.328765
1753555707790,78.351838
1753555707821,78.374527
1753555707857,78.126205
1753555707891,78.147475
1753555707922,78.175125
1753555707954,78.140216
1753555707988,78.060866
1753555708019,78.023041
1753555708055,77.989121
1753555708089,77.986061
1753555708119,77.974017
1753555708150,77.991777
1753555708187,77.99569
1753555708225,78.011563
1753555708257,77.987663
1753555708290,77.947024
1753555708319,77.946803
1753555708356,77.964394
1753555708391,77.964108
1753555708421,77.959492
1753555708457,77.967604
1753555708491,77.956009
1753555708521,77.968939
1753555708557,77.95539
1753555708586,77.90761
1753555708616,77.864862
1753555708647,77.84845
1753555708682,77.856802
1753555708719,77.899921
1753555708752,77.921321
1753555708781,77.865305
1753555708816,77.795396
1753555708850,77.758807
1753555708881,78.283921
1753555708919,78.298902
1753555708951,78.313062
1753555708984,78.32771
1753555709014,78.317632
1753555709050,78.325432
1753555709080,78.342411
1753555709116,78.096928
1753555709150,78.09267
1753555709182,78.101785
1753555709217,78.06349
1753555709249,78.062448
1753555709281,78.103432
1753555709315,78.126869
1753555709349,78.109884
1753555709384,78.110092
1753555709414,78.081882
1753555709451,78.091973
1753555709487,78.106114
1753555709525,78.12446
1753555709554,78.146244
1753555709585,78.142254
1753555709622,78.061166
1753555709657,77.987572
1753555709681,77.965547
1753555709714,77.975736
1753555709749,77.994447
1753555709785,78.492178
1753555709815,78.495231
1753555709851,78.504352
1753555709884,78.518174
1753555709916,78.265171
1753555709947,78.499548
1753555709982,78.26355
1753555710013,78.265666
1753555710046,78.280158
1753555710082,78.030645
1753555710116,78.290314
1753555710154,78.078685
1753555710185,78.105932
1753555710214,78.081394
1753555710251,78.093588
1753555710285,78.122611
1753555710314,78.130769
1753555710357,78.139871
1753555710384,78.088282
1753555710417,78.030834
1753555710451,78.005664
1753555710482,77.991217
1753555710516,78.003184
1753555710551,78.01138
1753555710581,78.017428
1753555710619,77.994629
1753555710650,77.941412
1753555710678,77.950579
1753555710712,77.969147
1753555710748,77.960254
1753555710782,77.977558
1753555710814,78.000254
1753555710850,78.017383
1753555710879,78.011191
1753555710915,78.014902
1753555710951,78.026667
1753555710984,78.048125
1753555711013,78.058698
1753555711048,78.073099
1753555711090,78.086797
1753555711114,78.0828
1753555711147,78.009981
1753555711181,77.969557
1753555711217,77.951849
1753555711248,77.954791
1753555711286,77.965182
1753555711324,77.947884
1753555711359,77.981608
1753555711383,78.087989
1753555711417,78.207521
1753555711448,78.216076
1753555711481,78.261929
1753555711512,78.018203
1753555711545,77.763677
1753555711577,77.522744
1753555711610,77.531924
1753555711650,77.256948
1753555711681,77.242853
1753555711712,77.260842
1753555711745,77.261922
1753555711781,77.246265
1753555711813,77.256323
1753555711845,77.272059
1753555711879,77.268713
1753555711912,77.2473
1753555711949,77.167273
1753555711982,77.136088
1753555712015,77.135554
1753555712047,77.11588
1753555712080,77.119018
1753555712116,77.140828
1753555712146,77.145183
1753555712178,77.146095
1753555712213,77.167527
1753555712246,77.143718
1753555712278,77.151049
1753555712313,77.154298
1753555712345,77.144975
1753555712379,77.170047
1753555712411,77.195789
1753555712446,77.1742
1753555712482,77.205535
1753555712521,77.212098
1753555712545,77.208361
1753555712588,77.228459
1753555712616,77.243061
1753555712648,77.226362
1753555712680,77.241668
1753555712712,77.276024
1753555712744,77.236883
1753555712776,77.170073
1753555712808,77.142729
1753555712845,77.113406
1753555712877,77.107937
1753555712917,77.10905
1753555712956,77.093152
1753555712981,77.081941
1753555713011,77.106986
1753555713043,77.102253
1753555713078,77.080958
1753555713112,77.079447
1753555713145,77.095053
1753555713181,77.672413
1753555713213,77.683318
1753555713245,77.672739
1753555713279,77.352938
1753555713315,77.369755
1753555713347,77.367802
1753555713381,77.367483
1753555713415,77.376259
1753555713447,77.404716
1753555713478,77.427444
1753555713512,77.454528
1753555713545,77.500374
1753555713578,77.523265
1753555713614,77.477269
1753555713646,77.43053
1753555713679,77.417067
1753555713709,77.448701
1753555713744,77.479521
1753555713779,77.499398
1753555713812,77.567647
1753555713844,77.614685
1753555713880,77.61824
1753555713913,77.596846
1753555713946,77.592126
1753555713983,77.599548
1753555714010,77.634477
1753555714044,77.681092
1753555714078,77.676502
1753555714111,77.718644
1753555714144,77.764647
1753555714177,77.729627
1753555714213,77.708527
1753555714248,77.673273
1753555714280,77.682517
1753555714312,77.716456
1753555714346,77.721932
1753555714380,77.690252
1753555714413,77.606456
1753555714456,77.57281
1753555714479,77.579502
1753555714511,77.523024
1753555714544,77.409046
1753555714577,77.362554
1753555714610,77.650772
1753555714646,77.958411
1753555714678,77.956419
1753555714711,77.94901
1753555714744,77.945768
1753555714777,77.938424
1753555714812,77.955019
1753555714845,77.999264
1753555714875,77.990729
1753555714912,77.990631
1753555714945,77.999212
1753555714982,77.745662
1753555715008,77.784699
1753555715042,77.77132
1753555715075,77.759705
1753555715112,78.042657
1753555715146,78.049655
1753555715179,78.065033
1753555715212,77.720526
1753555715245,77.644425
1753555715279,77.614464
1753555715314,77.889889
1753555715345,77.906074
1753555715376,77.911386
1753555715412,77.918111
1753555715445,77.652674
1753555715478,77.678852
1753555715512,77.666222
1753555715545,77.669366
1753555715577,77.670447
1753555715610,77.6841
1753555715645,77.697934
1753555715678,77.713273
1753555715712,77.71548
1753555715744,77.725819
1753555715775,77.722388
1753555715811,77.72421
1753555715843,77.741763
1753555715878,77.757843
1753555715916,77.775799
1753555715943,77.785721
1753555715976,77.773469
1753555716013,77.777193
1753555716045,77.485231
1753555716075,77.419469
1753555716112,77.342151
1753555716146,77.308511
1753555716173,77.290249
1753555716209,77.307346
1753555716242,77.324292
1753555716276,77.345145
1753555716309,77.338707
1753555716342,77.342339
1753555716375,77.342528
1753555716411,77.33411
1753555716445,77.344748
1753555716476,77.357919
1753555716513,77.36704
1753555716544,77.390999
1753555716578,77.403128
1753555716616,77.383388
1753555716647,77.39874
1753555716675,77.40874
1753555716709,77.43163
1753555716744,77.449423
1753555716777,77.45359
1753555716810,77.45723
1753555716843,77.468499
1753555716879,77.48831
1753555716913,77.430061
1753555716941,77.357873
1753555716978,77.3387
1753555717010,77.324735
1753555717044,77.352952
1753555717078,77.349254
1753555717108,77.378381
1753555717145,77.403206
1753555717172,77.414287
1753555717210,77.406943
1753555717244,77.395803
1753555717276,77.400842
1753555717307,77.434072
1753555717340,77.449469
1753555717375,77.475036
1753555717411,77.491071
1753555717448,77.514183
1753555717480,77.507425
1753555717512,77.538207
1753555717545,77.556429
1753555717575,77.536644
1753555717610,77.506813
1753555717643,77.470687
1753555717677,77.453434
1753555717707,77.433167
1753555717740,77.399254
1753555717773,77.409137
1753555717817,77.466344
1753555717845,77.55309
1753555717876,77.65016
1753555717912,77.648709
1753555717943,77.571482
1753555717974,77.567133
1753555718008,77.318947
1753555718042,77.31079
1753555718076,77.228478
1753555718110,77.253836
1753555718144,77.260776
1753555718173,77.200522
1753555718209,77.230294
1753555718244,77.228628
1753555718275,77.210672
1753555718314,77.225431
1753555718342,77.247495
1753555718374,77.237905
1753555718410,77.234526
1753555718442,77.249924
1753555718473,77.269878
1753555718509,77.285731
1753555718544,77.278478
1753555718573,77.187697
1753555718613,77.111986
1753555718644,77.089799
1753555718671,77.041914
1753555718704,76.98847
1753555718737,77.018125
1753555718777,77.036582
1753555718804,77.658403
1753555718837,77.695929
1753555718875,77.688527
1753555718911,77.675076
1753555718940,77.706072
1753555718974,77.421344
1753555719007,77.414365
1753555719038,77.434176
1753555719074,77.467946
1753555719106,77.132371
1753555719141,77.172436
1753555719176,77.20754
1753555719212,77.1817
1753555719240,77.203074
1753555719277,77.236147
1753555719311,77.220633
1753555719343,77.235327
1753555719373,77.270952
1753555719411,77.228048
1753555719440,77.177384
1753555719475,77.133523
1753555719507,77.079265
1753555719541,77.109584
1753555719575,77.147579
1753555719607,77.148868
1753555719643,77.176616
1753555719674,77.205704
1753555719706,77.198706
1753555719738,77.219956
1753555719778,77.262404
1753555719807,77.239383
1753555719838,77.256167
1753555719875,77.26676
1753555719908,77.265028
1753555719938,77.331897
1753555719976,77.341161
1753555720008,77.327333
1753555720040,77.363062
1753555720076,77.346389
1753555720106,77.336819
1753555720140,77.375042
1753555720175,77.391253
1753555720203,77.370198
1753555720240,77.339169
1753555720274,77.301037
1753555720304,77.257547
1753555720340,77.289611
1753555720376,77.289657
1753555720407,77.293446
1753555720440,77.343804
1753555720474,77.377268
1753555720508,77.375536
1753555720540,77.410836
1753555720573,77.415582
1753555720604,77.387639
1753555720640,77.407581
1753555720673,77.418395
1753555720702,77.432112
1753555720737,77.474827
1753555720770,77.494665
1753555720804,77.475329
1753555720839,77.539789
1753555720874,77.55473
1753555720904,77.558402
1753555720940,77.288075
1753555720974,77.297398
1753555721004,77.267632
1753555721038,77.235666
1753555721073,77.263101
1753555721104,77.245444
1753555721140,77.296805
1753555721178,77.332287
1753555721207,77.290575
1753555721240,77.317548
1753555721273,77.386506
1753555721303,77.351337
1753555721340,77.336968
1753555721373,77.365823
1753555721404,77.330289
1753555721440,77.354182
1753555721474,77.430068
1753555721504,77.420055
1753555721539,77.455407
1753555721573,77.226668
1753555721604,77.210066
1753555721638,77.150528
1753555721673,76.878482
1753555721702,77.251994
1753555721735,77.152918
1753555721773,77.203504
1753555721806,77.167638
1753555721837,77.157039
1753555721870,77.216095
1753555721904,77.192312
1753555721940,77.110723
1753555721974,77.144194
1753555722004,77.149708
1753555722039,77.056055
1753555722073,77.104753
1753555722104,77.104369
1753555722139,77.077618
1753555722173,77.1281
1753555722205,77.127625
1753555722240,77.145164
1753555722273,77.14866
1753555722304,77.141401
1753555722340,77.144389
1753555722373,77.207195
1753555722404,77.18935
1753555722439,77.213888
1753555722473,77.29937
1753555722505,77.257632
1753555722540,77.144688
1753555722573,76.819804
1753555722604,76.750096
1753555722640,76.663904
1753555722672,76.667146
1753555722704,77.053256
1753555722740,77.052025
1753555722769,77.368622
1753555722805,76.964557
1753555722839,77.142696
1753555722873,77.969394
1753555722904,78.027878
1753555722939,78.097025
1753555722973,77.743794
1753555723004,77.980117
1753555723039,78.582302
1753555723072,79.721691
1753555723103,80.037806
1753555723140,81.328199
1753555723174,83.397346
1753555723204,83.461051
1753555723239,82.111615
1753555723274,79.254064
1753555723304,77.608604
1753555723341,77.271688
1753555723374,76.75203
1753555723404,76.678129
1753555723440,76.289624
1753555723474,76.043581
1753555723504,76.508636
1753555723540,76.557471
1753555723573,76.953724
1753555723604,77.053509
1753555723640,77.010801
1753555723668,77.54652
1753555723697,77.1039
1753555723733,77.047826
1753555723774,77.145333
1753555723801,77.392424
1753555723835,77.451207
1753555723868,77.652615
1753555723900,77.673429
1753555723934,77.192397
1753555723968,77.233406
1753555723999,77.297404
1753555724037,77.154786
1753555724068,77.152722
1753555724097,77.20937
1753555724130,77.291063
1753555724170,77.431233
1753555724200,77.570648
1753555724235,77.369208
1753555724268,77.38581
1753555724299,77.584275
1753555724335,77.596866
1753555724367,77.734054
1753555724396,77.582341
1753555724430,77.102273
1753555724464,77.179734
1753555724498,77.260138
1753555724530,77.358622
1753555724567,77.380517
1753555724598,77.386799
1753555724630,77.656625
1753555724669,78.170743
1753555724697,78.530296
1753555724732,78.290334
1753555724767,78.117266
1753555724797,77.866484
1753555724835,77.843091
1753555724867,77.968763
1753555724897,78.111869
1753555724933,77.699425
1753555724962,77.485778
1753555724995,77.623233
1753555725031,77.481761
1753555725067,77.282814
1753555725101,77.463851
1753555725131,77.747114
1753555725162,77.371708
1753555725199,77.179415
1753555725230,77.155984
1753555725267,77.18573
1753555725300,77.358772
1753555725331,77.351116
1753555725367,77.509873
1753555725399,77.892916
1753555725432,77.769881
1753555725467,77.866887
1753555725498,78.141349
1753555725531,78.493278
1753555725567,78.655304
1753555725600,78.790428
1753555725633,78.802616
1753555725662,78.930449
1753555725698,78.552028
1753555725733,78.466403
1753555725761,78.086465
1753555725797,78.077344
1753555725832,77.97375
1753555725865,77.986256
1753555725900,78.013919
1753555725928,77.937806
1753555725966,77.628949
1753555725998,77.424833
1753555726029,77.341519
1753555726064,77.434534
1753555726096,77.167234
1753555726129,77.098367
1753555726164,77.301232
1753555726196,77.225522
1753555726229,77.4004
1753555726262,77.58475
1753555726297,77.548226
1753555726332,77.309937
1753555726364,77.432418
1753555726398,77.637543
1753555726431,77.500055
1753555726464,77.190568
1753555726496,77.169122
1753555726529,77.356571
1753555726566,77.311343
1753555726594,77.349104
1753555726627,77.131589
1753555726660,77.044558
1753555726695,76.734738
1753555726735,76.230776
1753555726763,75.946328
1753555726797,76.320542
1753555726830,76.715877
1753555726864,76.678976
1753555726896,77.043542
1753555726931,77.078152
1753555726965,77.132084
1753555726995,77.188211
1753555727029,77.140737
1753555727061,77.098562
1753555727095,77.102488
1753555727130,77.042963
1753555727161,76.987578
1753555727193,76.811861
1753555727228,76.715512
1753555727262,76.706756
1753555727295,76.710141
1753555727331,77.077559
1753555727363,77.090769
1753555727398,77.103848
1753555727440,77.11573
1753555727464,77.125554
1753555727495,77.140274
1753555727528,77.154793
1753555727562,77.153901
1753555727597,77.156368
1753555727630,77.192384
1753555727659,77.19868
1753555727691,77.203133
1753555727728,77.217378
1753555727758,77.219839
1753555727790,77.238035
1753555727824,77.261239
1753555727857,77.278237
1753555727891,77.214044
1753555727930,77.160685
1753555727963,77.130841
1753555727997,77.137586
1753555728027,77.150307
1753555728061,77.143621
1753555728094,77.166427
1753555728130,77.193367
1753555728163,77.200672
1753555728195,77.199604
1753555728228,77.189682
1753555728262,77.209129
1753555728296,77.233446
1753555728325,77.235438
1753555728358,77.259852
1753555728400,77.273583
1753555728430,77.291291
1753555728462,77.304338
1753555728498,77.301363
1753555728530,77.299143
1753555728563,77.330445
1753555728597,77.345673
1753555728629,77.343537
1753555728661,76.992324
1753555728692,76.985931
1753555728726,76.982558
1753555728758,76.978463
1753555728795,76.94806
1753555728830,76.877499
1753555728861,76.813527
1753555728895,76.793514
1753555728926,76.817623
1753555728961,76.812004
1753555728996,76.830129
1753555729026,76.869596
1753555729062,76.860207
1753555729097,76.862838
1753555729126,76.898424
1753555729162,76.93067
1753555729194,76.944062
1753555729226,76.929472
1753555729258,76.919016
1753555729293,76.974681
1753555729326,76.966491
1753555729360,76.975833
1753555729395,76.968789
1753555729428,76.976458
1753555729458,76.995352
1753555729491,77.049297
1753555729526,77.09045
1753555729559,77.084141
1753555729594,77.057286
1753555729625,77.087657
1753555729659,77.08407
1753555729694,77.014629
1753555729724,76.939101
1753555729758,76.871256
1753555729796,76.854341
1753555729825,76.834035
1753555729868,76.849094
1753555729895,76.856737
1753555729925,76.833768
1753555729958,76.83203
1753555729994,76.821861
1753555730025,76.803964
1753555730058,76.787531
1753555730094,76.790077
1753555730125,76.749432
1753555730274,77.421383
1753555730298,77.421168
1753555730314,77.449716
1753555730326,77.465276
1753555730354,77.496156
1753555730393,77.49596
1753555730430,77.509958
1753555730458,77.191629
1753555730496,77.216173
1753555730530,77.203309
1753555730559,76.765344
1753555730594,76.701619
1753555730625,76.69979
1753555730658,76.715903
1753555730693,77.080847
1753555730725,77.436793
1753555730759,77.468909
1753555730794,77.503434
1753555730830,77.179161
1753555730863,77.159988
1753555730890,77.17312
1753555730926,77.198172
1753555730965,77.234364
1753555730991,77.25075
1753555731030,77.244845
1753555731063,77.23189
1753555731096,77.241017
1753555731126,77.247417
1753555731157,77.244344
1753555731200,77.240711
1753555731226,77.236662
1753555731260,77.240145
1753555731292,77.251974
1753555731323,77.258563
1753555731357,77.254077
1753555731390,77.260601
1753555731427,77.261317
1753555731459,77.22465
1753555731494,77.137755
1753555731523,77.095339
1753555731561,77.104337
1753555731595,77.130802
1753555731626,77.152488
1753555731659,77.155502
1753555731689,77.175717
1753555731722,77.189695
1753555731764,77.166459
1753555731791,77.147449
1753555731822,77.154845
1753555731864,77.17394
1753555731892,77.202892
1753555731925,77.230034
1753555731956,77.211811
1753555731992,77.210971
1753555732025,77.229279
1753555732061,77.23717
1753555732090,77.221284
1753555732119,77.234943
1753555732154,77.238094
1753555732187,77.245138
1753555732224,77.268042
1753555732260,77.276232
1753555732291,77.294084
1753555732321,77.287899
1753555732358,77.291096
1753555732390,77.309253
1753555732425,77.251095
1753555732456,77.202124
1753555732488,77.210457
1753555732521,77.205112
1753555732555,77.20924
1753555732588,77.261017
1753555732622,77.280458
1753555732663,77.284878
1753555732692,77.283283
1753555732721,77.288465
1753555732758,77.28952
1753555732793,77.286044
1753555732823,77.003333
1753555732859,77.027689
1753555732891,77.042175
1753555732928,77.061739
1753555732959,77.048568
1753555732992,77.098783
1753555733028,77.106231
1753555733057,77.074096
1753555733090,77.123367
1753555733124,77.152787
1753555733158,77.144233
1753555733192,77.155014
1753555733226,77.154604
1753555733256,77.157514
1753555733292,77.112722
1753555733328,77.112533
1753555733358,77.28383
1753555733387,77.751704
1753555733424,78.006621
1753555733459,78.143647
1753555733490,77.616853
1753555733523,77.423414
1753555733554,76.895273
1753555733590,77.576098
1753555733627,77.685161
1753555733657,77.38329
1753555733690,76.796333
1753555733724,76.615434
1753555733762,76.610837
1753555733789,77.227371
1753555733823,77.117703
1753555733855,76.911731
1753555733887,76.420165
1753555733922,76.39247
1753555733954,76.40079
1753555733989,76.75384
1753555734022,77.105372
1753555734053,77.111075
1753555734089,77.085853
1753555734122,77.118028
1753555734151,77.080743
1753555734185,77.042279
1753555734219,77.017012
1753555734255,76.962702
1753555734289,76.965442
1753555734320,76.987643
1753555734354,77.040983
1753555734385,77.051615
1753555734417,77.056237
1753555734451,77.043295
1753555734496,77.023796
1753555734527,77.065411
1753555734554,77.100352
1753555734590,77.110496
1753555734620,77.090398
1753555734656,77.126388
1753555734691,77.127813
1753555734717,77.122904
1753555734753,77.189194
1753555734790,77.262892
1753555734820,77.201622
1753555734856,77.16379
1753555734889,77.206004
1753555734919,77.14991
1753555734957,77.162911
1753555734989,77.177169
1753555735021,77.183536
1753555735056,77.126915
1753555735090,77.053288
1753555735121,77.008294
1753555735163,76.965364
1753555735189,76.911243
1753555735220,76.909654
1753555735256,76.92414
1753555735289,76.92358
1753555735320,76.929544
1753555735359,76.932975
1753555735390,76.947389
1753555735424,76.950696
1753555735455,76.958131
1753555735486,76.962877
1753555735522,76.989082
1753555735556,76.987643
1753555735587,76.999961
1753555735622,77.008034
1753555735656,77.033776
1753555735686,77.041569
1753555735722,77.049004
1753555735756,77.059616
1753555735789,77.054343
1753555735822,77.063386
1753555735854,77.100079
1753555735887,77.14129
1753555735921,77.112221
1753555735954,77.059102
1753555735987,76.981868
1753555736022,76.913014
1753555736053,76.892428
1753555736091,76.900377
1753555736123,76.921217
1753555736154,76.936764
1753555736186,76.959537
1753555736220,76.963444
1753555736252,76.968926
1753555736289,76.962096
1753555736326,76.972005
1753555736356,76.99041
1753555736388,77.010267
1753555736422,77.031113
1753555736453,77.040228
1753555736487,77.036615
1753555736522,77.046706
1753555736552,77.066569
1753555736589,77.090131
1753555736623,77.110639
1753555736653,77.090749
1753555736705,77.098087
1753555736723,77.146882
1753555736750,77.199526
1753555736779,77.148048
1753555736814,77.083822
1753555736846,77.112859
1753555736879,77.11935
1753555736915,77.115964
1753555736947,77.089011
1753555736983,77.068796
1753555737018,77.15157
1753555737056,77.154441
1753555737083,77.074981
1753555737115,77.094473
1753555737157,77.117397
1753555737193,77.12047
1753555737223,77.076283
1753555737253,77.028177
1753555737289,77.014199
1753555737323,77.047409
1753555737358,77.04642
1753555737387,77.032611
1753555737420,77.038132
1753555737451,77.034616
1753555737482,77.027149
1753555737514,77.0489
1753555737548,77.0514
1753555737586,77.034115
1753555737622,77.016218
1753555737656,76.998431
1753555737689,76.919759
1753555737720,76.829582
1753555737750,76.787225
1753555737788,76.764679
1753555737823,76.779751
1753555737856,77.119682
1753555737887,77.132358
1753555737913,77.154493
1753555737947,77.170209
1753555737993,77.491592
1753555738020,77.492985
1753555738053,77.507347
1753555738083,77.193146
1753555738117,77.190633
1753555738147,77.205021
1753555738179,77.219969
1753555738213,77.2434
1753555738253,77.248615
1753555738283,77.257599
1753555738316,77.274279
1753555738345,77.291786
1753555738381,77.300165
1753555738416,77.311044
1753555738457,77.326363
1753555738483,77.335614
1753555738514,77.336024
1753555738546,77.362457
1753555738580,77.385061
1753555738615,77.319735
1753555738650,76.918847
1753555738689,76.890969
1753555738716,76.896992
1753555738747,76.909746
1753555738782,76.893678
1753555738816,76.909824
1753555738848,76.907141
1753555738883,76.907695
1753555738917,76.882525
1753555738948,76.890559
1753555738979,76.90567
1753555739017,76.915983
1753555739048,76.940599
1753555739083,76.933684
1753555739113,76.933776
1753555739147,76.964466
1753555739182,76.988372
1753555739213,76.996387
1753555739248,76.977786
1753555739283,76.98709
1753555739316,76.993581
1753555739347,77.000573
1753555739381,77.021953
1753555739416,77.023444
1753555739450,77.02696
1753555739482,76.981217
1753555739516,76.954127
1753555739547,76.940755
1753555739579,76.931041
1753555739615,76.976556
1753555739648,76.967031
1753555739680,76.994798
1753555739714,77.026778
1753555739745,77.080085
1753555739778,77.143556
1753555739814,77.045612
1753555739847,77.030827
1753555739882,77.033535
1753555739922,77.000749
1753555739956,76.996458
1753555739979,76.999935
1753555740018,77.022676
1753555740048,77.04864
1753555740080,77.033959
1753555740111,77.037175
1753555740144,77.064343
1753555740177,77.086869
1753555740212,77.104031
1753555740246,77.084545
1753555740281,77.068015
1753555740312,77.100443
1753555740347,77.101231
1753555740381,77.032422
1753555740413,77.100821
1753555740445,77.086908
1753555740479,77.270542
1753555740512,77.263185
1753555740546,77.193126
1753555740579,77.279989
1753555740610,77.176551
1753555740651,77.144148
1753555740681,77.194578
1753555740712,77.161258
1753555740744,77.204227
1753555740779,77.203315
1753555740815,77.183419
1753555740847,77.148334
1753555740878,77.258563
1753555740914,77.332763
1753555740947,77.268934
1753555740977,77.177729
1753555741010,76.786965
1753555741043,76.814784
1753555741080,76.775571
1753555741114,76.773215
1753555741146,76.739816
1753555741180,76.708462
1753555741214,76.702967
1753555741246,76.69688
1753555741279,76.680655
1753555741314,76.612348
1753555741357,76.557426
1753555741381,76.558799
1753555741409,76.557106
1753555741442,76.862864
1753555741477,76.893059
1753555741511,76.923144
1753555741545,77.269605
1753555741576,77.286616
1753555741612,77.316304
1753555741645,76.998743
1753555741675,77.080502
1753555741710,77.043913
1753555741745,76.980579
1753555741775,77.051511
1753555741815,77.056068
1753555741846,77.066374
1753555741879,77.12293
1753555741913,77.147748
1753555741946,77.121264
1753555741978,77.107253
1753555742010,77.118966
1753555742046,77.132123
1753555742079,77.155066
1753555742113,77.127852
1753555742145,77.133184
1753555742179,77.149708
1753555742212,77.144565
1753555742246,77.178601
1753555742277,77.179083
1753555742312,77.153152
1753555742343,77.256727
1753555742379,77.34508
1753555742412,77.307788
1753555742443,77.264937
1753555742478,76.879882
1753555742511,76.980905
1753555742542,77.152846
1753555742578,77.096296
1753555742612,76.898476
1753555742643,76.849934
1753555742677,76.859517
1753555742712,76.816555
1753555742741,76.757746
1753555742774,76.71615
1753555742812,76.724803
1753555742842,76.79315
1753555742879,76.850839
1753555742911,76.822362
1753555742942,76.839765
1753555742978,76.861653
1753555743013,76.911966
1753555743043,77.032044
1753555743079,77.147468
1753555743115,77.162416
1753555743145,77.138881
1753555743179,77.013555
1753555743214,77.000007
1753555743244,77.174389
1753555743278,77.190763
1753555743311,77.108275
1753555743342,76.983678
1753555743378,77.064916
1753555743411,77.152416
1753555743442,77.040951
1753555743477,77.029701
1753555743511,77.023796
1753555743543,77.091609
1753555743577,77.357463
1753555743611,77.40178
1753555743641,77.384573
1753555743678,77.34536
1753555743711,77.443649
1753555743741,77.34454
1753555743773,77.280002
1753555743811,77.528617
1753555743841,77.500583
1753555743873,77.66962
1753555743907,77.740584
1753555743947,77.923756
1753555743978,77.608565
1753555744011,77.697166
1753555744045,77.875989
1753555744077,78.002637
1753555744112,77.775239
1753555744144,77.470765
1753555744179,77.490016
1753555744211,77.624783
1753555744243,77.37314
1753555744278,77.187495
1753555744310,77.350497
1753555744344,77.456513
1753555744377,77.414241
1753555744408,77.384058
1753555744443,77.340543
1753555744478,77.188556
1753555744511,77.245672
1753555744550,77.25161
1753555744574,77.157358
1753555744609,77.101023
1753555744644,77.132781
1753555744677,77.179851
1753555744711,77.155079
1753555744742,77.368095
1753555744781,77.439293
1753555744810,77.340816
1753555744843,77.630916
1753555744877,77.650909
1753555744910,77.491605
1753555744945,77.44178
1753555744986,77.430413
1753555745012,77.567295
1753555745042,77.502041
1753555745074,77.52723
1753555745108,77.653325
1753555745147,77.626339
1753555745177,77.834211
1753555745211,77.805728
1753555745242,77.715493
1753555745277,77.482855
1753555745310,77.535362
1753555745343,77.668956
1753555745377,77.589841
1753555745408,77.54389
1753555745442,77.26355
1753555745475,77.287775
1753555745504,77.448479
1753555745543,77.152319
1753555745577,77.058301
1753555745614,76.974095
1753555745641,76.977044
1753555745673,77.061127
1753555745714,77.169819
1753555745742,77.036908
1753555745776,77.037552
1753555745808,77.040111
1753555745839,76.894999
1753555745874,77.125098
1753555745912,77.632517
1753555745945,77.536709
1753555745974,77.775741
1753555746010,77.813964
1753555746042,78.027129
1753555746076,78.230171
1753555746108,78.133829
1753555746145,78.060866
1753555746179,77.526097
1753555746208,77.619379
1753555746247,77.651274
1753555746277,77.775383
1753555746307,78.236095
1753555746347,78.574112
1753555746383,78.683032
1753555746407,78.419554
1753555746437,78.457783
1753555746473,78.674588
1753555746510,79.075443
1753555746541,79.172859
1753555746574,79.095665
1753555746611,78.872362
1753555746642,78.414547
1753555746673,78.302919
1753555746709,78.055502
1753555746740,77.836158
1753555746772,77.298081
1753555746803,77.257092
1753555746838,76.974564
1753555746875,76.668624
1753555746912,76.486794
1753555746940,76.46111
1753555746976,76.802225
1753555747008,76.638259
1753555747037,76.561931
1753555747074,77.121342
1753555747106,77.18034
1753555747141,77.156401
1753555747176,77.298791
1753555747208,77.46443
1753555747243,77.609691
1753555747275,77.602836
1753555747307,77.623227
1753555747340,77.605609
1753555747373,78.108816
1753555747408,77.550804
1753555747440,77.474795
1753555747470,77.318544
1753555747506,76.801216
1753555747540,76.442151
1753555747576,76.699868
1753555747607,77.685004
1753555747641,78.511937
1753555747678,79.445446
1753555747710,80.302554
1753555747739,80.229761
1753555747771,79.869407
1753555747802,78.420205
1753555747839,77.271258
1753555747875,77.196661
1753555747905,77.25689
1753555747944,76.513265
1753555747972,76.310933
1753555748003,76.218152
1753555748040,76.476006
1753555748072,76.816464
1753555748112,76.893307
1753555748137,76.913261
1753555748169,76.942845
1753555748206,76.98571
1753555748240,76.977239
1753555748269,76.945839
1753555748307,76.983496
1753555748342,76.966413
1753555748373,76.834198
1753555748406,76.854869
1753555748444,76.970325
1753555748475,76.881868
1753555748510,77.000592
1753555748539,77.271024
1753555748570,77.47025
1753555748607,77.453134
1753555748638,77.303003
1753555748669,77.3565
1753555748705,77.534457
1753555748738,77.580635
1753555748769,77.785266
1753555748802,77.394143
1753555748836,77.434619
1753555748870,77.769842
1753555748902,77.615108
1753555748937,77.471761
1753555748974,77.836483
1753555749006,77.975032
1753555749037,77.799862
1753555749071,77.369788
1753555749107,77.629106
1753555749138,77.624653
1753555749173,77.695864
1753555749206,77.845448
1753555749236,77.830793
1753555749269,78.083555
1753555749302,78.305035
1753555749335,78.545062
1753555749372,78.614197
1753555749407,78.224051
1753555749439,77.957741
1753555749473,78.013613
1753555749506,77.907675
1753555749536,77.665388
1753555749572,77.353368
1753555749606,77.556911
1753555749634,77.280796
1753555749666,76.920976
1753555749698,76.823228
1753555749729,77.054662
1753555749765,77.030443
1753555749802,77.192508
1753555749834,77.292567
1753555749866,77.315458
1753555749899,77.413245
1753555749931,77.535082
1753555749964,77.667719
1753555750000,77.746138
1753555750039,78.009414
1753555750069,77.97845
1753555750102,77.832655
1753555750136,77.967982
1753555750168,78.152052
1753555750202,78.536644
1753555750240,78.838508
1753555750273,78.828593
1753555750306,78.447601
1753555750337,78.384586
1753555750369,78.484463
1753555750406,78.479482
1753555750436,79.242834
1753555750472,79.31495
1753555750504,79.005703
1753555750536,78.261668
1753555750569,79.038392
1753555750602,78.790331
1753555750636,78.496683
1753555750672,78.727466
1753555750707,78.733084
1753555750736,78.156082
1753555750772,77.763553
1753555750806,77.725135
1753555750834,77.382561
1753555750868,77.055489
1753555750905,77.082448
1753555750931,77.470029
1753555750968,77.55712
1753555751005,77.482034
1753555751037,77.588799
1753555751072,77.357919
1753555751106,77.547686
1753555751136,78.219975
1753555751169,78.528994
1753555751206,78.262287
1753555751231,78.222475
1753555751266,78.267007
1753555751302,77.916477
1753555751335,78.037487
1753555751371,78.146127
1753555751405,77.751841
1753555751436,77.508083
1753555751472,77.321148
1753555751506,77.082175
1753555751537,77.143451
1753555751572,77.473258
1753555751606,77.443968
1753555751634,77.107637
1753555751667,77.110925
1753555751700,77.136394
1753555751729,76.903801
1753555751761,77.001406
1753555751797,77.175457
1753555751831,77.028093
1753555751872,77.131531
1753555751905,77.432809
1753555751939,77.427158
1753555751972,77.54236
1753555752005,77.865051
1753555752038,77.71173
1753555752069,77.629418
1753555752105,78.042956
1753555752139,78.076439
1753555752170,77.944544
1753555752203,78.231863
1753555752236,78.121329
1753555752268,77.764295
1753555752299,77.647133
1753555752333,77.566176
1753555752366,77.217195
1753555752396,77.070118
1753555752429,76.998047
1753555752463,76.780891
1753555752500,76.686587
1753555752530,76.56294
1753555752563,76.550954
1753555752599,76.892903
1753555752631,76.754367
1753555752664,76.663513
1753555752700,76.656795
1753555752730,76.613813
1753555752762,76.556527
1753555752800,76.502738
1753555752829,76.771808
1753555752863,77.077683
1753555752899,77.011022
1753555752929,76.946816
1753555752964,76.912591
1753555752999,76.926197
1753555753030,77.277254
1753555753063,77.304071
1753555753099,77.30885
1753555753132,77.306141
1753555753163,77.291252
1753555753199,77.287945
1753555753230,77.301467
1753555753264,77.3012
1753555753300,77.307899
1753555753332,77.324813
1753555753364,77.334944
1753555753399,77.347118
1753555753432,77.364716
1753555753465,77.36262
1753555753496,77.359501
1753555753529,77.383902
1753555753563,77.388388
1753555753596,77.410706
1753555753632,77.427672
1753555753663,77.431832
1753555753696,77.431943
1753555753732,77.082331
1753555753761,76.989902
1753555753797,76.929303
1753555753832,76.935586
1753555753864,76.945911
1753555753896,76.950019
1753555753931,76.967988
1753555753963,76.983822
1753555753997,76.992852
1753555754027,76.98567
1753555754062,76.983724
1753555754098,76.97722
1753555754132,76.970722
1753555754160,76.993991
1753555754197,76.981979
1753555754231,76.929934
1753555754265,76.888124
1753555754298,76.859361
1753555754329,76.857564
1753555754365,76.860305
1753555754398,76.859973
1753555754431,77.171088
1753555754464,77.169213
1753555754494,77.180021
1753555754530,77.176746
1753555754562,77.181355
1753555754594,77.134259
1753555754628,77.044512
1753555754662,76.996621
1753555754697,76.97582
1753555754728,76.982754
1753555754760,76.983444
1753555754797,76.999811
1753555754837,77.01556
1753555754862,77.0311
1753555754897,77.023275
1753555754931,77.020762
1753555754961,77.023757
1753555754995,77.031003
1753555755029,77.043783
1753555755062,77.071198
1753555755093,77.080274
1753555755127,77.095508
1753555755173,77.114298
1753555755194,77.131726
1753555755228,77.130138
1753555755261,77.148471
1753555755297,77.154519
1753555755330,77.158282
1753555755360,77.174851
1753555755396,77.191316
1753555755438,77.196993
1753555755462,77.216701
1753555755493,77.206629
1753555755528,77.116068
1753555755562,77.047207
1753555755594,77.039714
1753555755628,77.031393
1753555755663,77.030163
1753555755694,76.998477
1753555755732,76.994603
1753555755761,77.003828
1753555755791,76.987031
1753555755830,77.151388
1753555755862,79.354468
1753555755893,79.390693
1753555755931,79.038288
1753555755970,77.990631
1753555755999,77.300627
1753555756027,77.252515
1753555756070,77.969193
1753555756095,78.525075
1753555756129,77.821086
1753555756161,77.185151
1753555756195,76.718084
1753555756228,76.38538
1753555756260,76.314703
1753555756296,76.302756
1753555756328,76.230008
1753555756359,76.216968
1753555756395,76.24187
1753555756428,76.162696
1753555756459,76.487132
1753555756498,76.43288
1753555756529,76.839218
1753555756559,76.865416
1753555756594,76.897877
1753555756629,76.96582
1753555756660,76.971562
1753555756696,76.917727
1753555756729,76.935006
1753555756757,76.945156
1753555756791,76.986269
1753555756829,76.997513
1753555756859,76.952402
1753555756895,76.945866
1753555756929,76.868215
1753555756961,76.916061
1753555756995,76.988776
1753555757028,77.003704
1753555757058,76.963906
1753555757094,76.946959
1753555757127,76.981497
1753555757156,77.013093
1753555757191,76.969837
1753555757230,77.006185
1753555757261,77.027897
1753555757294,77.003724
1753555757327,77.02058
1753555757358,77.094206
1753555757395,77.006641
1753555757427,77.033906
1753555757458,77.027552
1753555757495,77.040716
1753555757527,77.080743
1753555757559,77.113542
1753555757594,77.159793
1753555757627,77.19976
1753555757656,77.296206
1753555757693,77.376142
1753555757727,77.426897
1753555757758,77.016673
1753555757789,77.090215
1753555757826,77.307958
1753555757860,77.449593
1753555757891,76.946002
1753555757928,77.047963
1753555757959,77.101407
1753555757990,77.134753
1753555758026,77.0792
1753555758060,77.118028
1753555758091,77.10683
1753555758127,77.266818
1753555758160,77.318947
1753555758191,77.232775
1753555758227,77.307242
1753555758260,77.411135
1753555758290,77.483623
1753555758327,77.427477
1753555758360,77.433564
1753555758390,77.385881
1753555758426,77.419482
1753555758460,77.733755
1753555758490,77.628461
1753555758526,77.596273
1753555758559,77.663064
1753555758591,77.27454
1753555758626,77.121492
1753555758670,76.968639
1753555758693,77.084994
1753555758726,77.564235
1753555758758,77.590622
1753555758789,77.565082
1753555758828,77.164005
1753555758864,77.069851
1753555758893,77.083113
1753555758928,77.240366
1753555758961,77.339013
1753555758991,77.19129
1753555759025,77.229585
1753555759063,77.788644
1753555759094,78.040332
1753555759127,78.239637
1753555759159,78.183693
1753555759187,78.174584
1753555759222,78.26047
1753555759259,78.136368
1753555759292,77.983483
1753555759325,78.091999
1753555759359,78.140698
1753555759391,78.435387
1753555759425,78.135912
1753555759460,77.961517
1753555759491,78.005215
1753555759527,77.744263
1753555759560,77.486234
1753555759590,77.391474
1753555759624,77.316727
1753555759660,77.396103
1753555759690,77.28271
1753555759722,77.105535
1753555759757,77.012415
1753555759789,76.896659
1753555759825,76.753182
1753555759859,76.663513
1753555759893,76.542862
1753555759925,77.367665
1753555759959,77.327085
1753555759991,77.352717
1753555760032,77.055834
1753555760062,77.331005
1753555760094,77.240392
1753555760127,77.437145
1753555760158,77.549893
1753555760187,77.458154
1753555760224,77.349019
1753555760259,77.322203
1753555760290,77.538793
1753555760326,77.46928
1753555760359,77.399332
1753555760390,77.381721
1753555760424,77.253713
1753555760459,77.19573
1753555760489,77.108451
1753555760524,77.306148
1753555760559,77.227176
1753555760589,77.101778
1753555760626,76.978906
1753555760658,76.883593
1753555760688,77.015352
1753555760726,77.04875
1753555760757,76.892219
1753555760788,77.005612
1753555760824,76.927246
1753555760858,76.796548
1753555760890,76.404579
1753555760924,76.055645
1753555760957,75.762381
1753555760990,76.323557
1753555761026,77.116407
1753555761057,77.824348
1753555761092,78.537184
1753555761125,78.648429
1753555761155,78.766672
1753555761189,78.808983
1753555761224,78.586931
1753555761253,78.276102
1753555761291,78.174689
1753555761323,77.756496
1753555761355,78.075495
1753555761392,77.831906
1753555761423,77.786275
1753555761456,77.698071
1753555761490,77.701834
1753555761523,77.797212
1753555761554,77.853489
1753555761589,77.899055
1753555761623,77.97039
1753555761656,77.935631
1753555761687,77.908242
1753555761724,77.950364
1753555761752,77.950696
1753555761789,77.990905
1753555761821,78.017975
1753555761852,78.021966
1753555761886,78.00722
1753555761921,77.891412
1753555761953,77.791411
1753555761992,77.752759
1753555762022,77.733553
1753555762062,77.763117
1753555762087,77.768781
1753555762119,77.797753
1753555762156,77.793801
1753555762189,77.847564
1753555762222,77.898684
1753555762254,77.919511
1753555762288,77.915677
1753555762322,77.91957
1753555762353,77.93899
1753555762386,77.961256
1753555762421,77.984323
1753555762454,77.996706
1753555762486,78.018639
1753555762520,78.0239
1753555762555,78.055209
1753555762588,78.078737
1753555762621,78.08974
1753555762655,78.104597
1753555762685,78.117227
1753555762724,78.134845
1753555762755,78.144168
1753555762785,78.155034
1753555762821,78.190411
1753555762855,78.184285
1753555762886,78.071426
1753555762918,77.935696
1753555762956,77.866451
1753555762985,77.859875
1753555763021,77.869869
1753555763056,77.875806
1753555763088,77.881236
1753555763123,77.907057
1753555763157,77.89927
1753555763188,77.881047
1753555763222,77.873267
1753555763256,77.88412
1753555763286,77.891451
1753555763323,77.888906
1753555763355,77.899498
1753555763386,77.919798
1753555763421,77.927578
1753555763461,77.94177
1753555763488,77.947005
1753555763526,77.950162
1753555763555,77.963496
1753555763587,77.987552
1753555763620,77.999798
1753555763653,78.01237
1753555763686,78.001322
1753555763717,77.988561
1753555763749,77.99526
1753555763783,78.014961
1753555763819,77.976224
1753555763855,77.85873
1753555763886,77.748397
1753555763915,77.698865
1753555763951,77.694223
1753555763985,78.022787
1753555764022,78.313381
1753555764055,78.321721
1753555764085,78.326981
1753555764122,78.016589
1753555764155,78.000892
1753555764186,78.001185
1753555764218,78.014212
1753555764255,77.997376
1753555764285,77.929407
1753555764321,77.728826
1753555764354,77.531976
1753555764386,77.560622
1753555764421,77.615688
1753555764456,78.152618
1753555764485,78.304618
1753555764525,78.643279
1753555764554,78.101902
1753555764586,78.157013
1753555764618,78.110945
1753555764655,77.877167
1753555764686,77.705057
1753555764720,77.808124
1753555764752,77.759061
1753555764785,77.650447
1753555764822,77.913606
1753555764856,78.31521
1753555764889,78.536188
1753555764922,78.677596
1753555764955,78.819843
1753555764985,79.028197
1753555765021,78.985742
1753555765056,78.978216
1753555765086,78.958424
1753555765122,78.583702
1753555765154,78.715773
1753555765185,78.867747
1753555765220,78.849016
1753555765256,78.379696
1753555765285,78.203647
1753555765319,77.820995
1753555765356,77.337717
1753555765385,77.288706
1753555765421,77.295165
1753555765455,77.15866
1753555765486,77.08933
1753555765522,77.223699
1753555765555,77.372633
1753555765586,77.148172
1753555765621,76.993385
1753555765655,77.038073
1753555765686,76.87662
1753555765722,76.951679
1753555765755,76.800298
1753555765782,77.743078
1753555765817,77.426149
1753555765850,77.788423
1753555765879,77.715102
1753555765916,77.644607
1753555765948,77.521651
1753555765983,77.515674
1753555766014,77.60057
1753555766048,77.615317
1753555766084,77.563988
1753555766119,77.516781
1753555766152,77.487659
1753555766188,77.51083
1753555766218,77.495837
1753555766252,78.080801
1753555766284,78.083034
1753555766318,78.07517
1753555766352,78.072155
1753555766388,77.783078
1753555766413,77.783872
1753555766446,77.795044
1753555766490,77.778404
1753555766515,77.74897
1753555766548,77.700356
1753555766581,77.646515
1753555766617,77.607888
1753555766654,77.583877
1753555766689,77.579652
1753555766713,77.580336
1753555766750,77.568838
1753555766781,77.566325
1753555766820,77.575661
1753555766855,77.581527
1753555766888,77.563057
1753555766913,77.538962
1753555766951,78.186974
1753555766990,78.207234
1753555767016,78.221141
1753555767049,78.221082
1753555767082,77.910117
1753555767112,77.915592
1753555767144,77.919114
1753555767178,77.944863
1753555767211,77.951022
1753555767248,77.939713
1753555767278,77.948587
1753555767310,77.983529
1753555767347,77.988177
1753555767378,77.897096
1753555767423,77.787837
1753555767448,77.737889
1753555767478,77.709275
1753555767513,77.679054
1753555767548,77.66212
1753555767580,77.664223
1753555767623,77.676951
1753555767655,77.670486
1753555767680,77.661287
1753555767725,77.642035
1753555767748,77.643129
1753555767778,77.670838
1753555767813,77.66699
1753555767846,77.664803
1753555767878,77.677029
1753555767912,77.683468
1753555767949,77.617068
1753555767977,77.55059
1753555768014,77.532725
1753555768049,77.523701
1753555768081,77.507803
1753555768114,77.507536
1753555768145,77.838853
1753555768179,77.868645
1753555768215,77.878424
1753555768245,77.871796
1753555768278,77.795624
1753555768314,77.680083
1753555768344,77.608031
1753555768378,77.586553
1753555768415,77.567621
1753555768444,77.55725
1753555768477,77.871816
1753555768512,77.891659
1753555768544,77.90623
1753555768578,77.911972
1753555768614,77.915748
1753555768643,77.946302
1753555768676,77.972077
1753555768710,77.985697
1753555768755,77.995755
1753555768779,78.022279
1753555768811,78.02306
1753555768845,78.017767
1753555768881,78.035814
1753555768914,78.040586
1753555768947,78.025638
1753555768977,77.989297
1753555769022,77.985781
1753555769047,78.011777
1753555769077,78.004004
1753555769113,78.014336
1753555769147,78.037585
1753555769178,78.04905
1753555769213,78.044382
1753555769247,78.049239
1753555769277,78.063842
1753555769312,78.063913
1753555769340,78.017721
1753555769374,77.935905
1753555769409,77.881471
1753555769443,77.868072
1753555769478,77.857506
1753555769512,77.862831
1753555769551,77.886536
1753555769580,77.903313
1753555769612,77.895956
1753555769644,77.886874
1753555769675,77.868476
1753555769709,77.858853
1753555769744,77.861171
1753555769778,77.86761
1753555769812,77.876536
1753555769845,77.872258
1753555769875,77.869524
1753555769910,77.878821
1753555769945,77.892597
1753555769979,77.896874
1753555770010,77.89526
1753555770045,77.902226
1753555770076,77.900696
1753555770110,77.940332
1753555770143,77.953014
1753555770177,77.937786
1753555770209,77.925286
1753555770243,77.931139
1753555770276,77.944655
1753555770312,77.931725
1753555770345,77.906445
1753555770376,77.904147
1753555770410,77.897792
1753555770445,77.860507
1753555770476,77.802941
1753555770510,77.741509
1753555770545,77.712225
1753555770577,77.710252
1753555770610,77.734341
1753555770644,77.755278
1753555770675,77.771437
1753555770712,77.780337
1753555770745,77.776678
1753555770774,77.773827
1753555770811,77.751287
1753555770844,77.750793
1753555770875,77.778859
1753555770912,77.77718
1753555770944,77.756808
1753555770975,77.779523
1753555771010,77.79093
1753555771044,77.77673
1753555771075,77.778703
1753555771108,77.805585
1753555771143,77.809914
1753555771178,77.795298
1753555771211,77.806828
1753555771244,77.828788
1753555771277,77.828469
1753555771311,77.814927
1753555771344,77.837304
1753555771377,77.881816
1753555771423,77.880859
1753555771444,77.856093
1753555771473,77.781431
1753555771519,77.695291
1753555771544,77.647328
1753555771572,77.643351
1753555771609,77.656651
1753555771642,77.663507
1753555771675,77.640675
1753555771707,77.647511
1753555771743,77.682674
1753555771777,77.687212
1753555771807,77.681834
1753555771840,77.70104
1753555771874,77.731886
1753555771910,77.734009
1753555771944,77.741737
1753555771976,77.764829
1753555772012,77.768547
1753555772043,77.749185
1753555772077,77.754627
1753555772110,77.776704
1753555772143,77.773469
1753555772174,77.760187
1753555772207,77.775259
1753555772239,77.781424
1753555772272,77.786392
1753555772305,77.796255
1753555772337,77.799484
1753555772371,77.809445
1753555772405,77.813866
1753555772437,77.809478
1753555772472,77.744263
1753555772504,77.666124
1753555772538,77.578246
1753555772570,77.570153
1753555772604,77.592562
1753555772637,77.592751
1753555772670,77.585342
1753555772706,77.618643
1753555772737,77.60949
1753555772770,77.584144
1753555772807,77.582588
1753555772840,77.585557
1753555772876,77.577999
1753555772908,77.563363
1753555772942,77.595844
1753555772971,77.617576
1753555773005,77.592185
1753555773041,77.590186
1753555773076,77.617328
1753555773110,77.609366
1753555773144,77.600948
1753555773178,77.61628
1753555773208,77.617432
1753555773240,77.622146
1753555773276,77.623005
1753555773310,77.618409
1753555773342,77.61947
1753555773384,77.597491
1753555773409,77.61852
1753555773447,77.632419
1753555773473,77.648923
1753555773508,77.614744
1753555773542,77.512386
1753555773575,77.446422
1753555773613,77.437184
1753555773638,77.697283
1753555773671,78.010827
1753555773705,78.030196
1753555773741,78.030723
1753555773774,78.038835
1753555773804,78.039903
1753555773841,77.743377
1753555773875,77.737824
1753555773909,77.751235
1753555773941,77.763208
1753555773980,77.767492
1753555774004,77.774634
1753555774042,77.791958
1753555774075,77.822557
1753555774111,77.836581
1753555774141,77.839732
1753555774174,77.838651
1753555774216,77.844908
1753555774241,77.835735
1753555774274,77.83841
1753555774309,77.856288
1753555774339,77.875064
1753555774375,77.881835
1753555774410,77.880032
1753555774441,77.854908
1753555774476,77.78481
1753555774508,77.707094
1753555774539,77.65199
1753555774575,77.662055
1753555774616,77.707433
1753555774642,77.719484
1753555774672,77.731639
1753555774706,77.746007
1753555774740,77.742186
1753555774773,77.732804
1753555774806,77.737733
1753555774842,77.737336
1753555774874,77.731697
1753555774908,77.758006
1753555774940,77.780213
1753555774975,77.762785
1753555775007,77.772153
1753555775043,77.785552
1753555775073,77.785904
1753555775104,77.803475
1753555775142,77.804673
1753555775173,77.797505
1753555775205,77.808065
1753555775240,77.813436
1753555775274,77.823612
1753555775307,77.840767
1753555775341,77.844569
1753555775374,77.846269
1753555775408,77.840253
1753555775444,77.736463
1753555775474,77.630955
1753555775505,77.609926
1753555775541,77.625655
1753555775573,77.913652
1753555775604,78.20435
1753555775642,78.222033
1753555775672,78.206883
1753555775701,77.931653
1753555775736,77.936634
1753555775771,77.9422
1753555775804,77.952519
1753555775837,77.965241
1753555775871,77.986367
1753555775904,77.992415
1753555775943,77.991237
1753555775974,78.014277
1753555776007,78.058907
1753555776040,78.04821
1753555776074,78.043744
1753555776108,78.049701
1753555776138,78.060443
1753555776174,78.072006
1753555776205,78.074122
1753555776241,77.795858
1753555776276,77.799882
1753555776307,77.811835
1753555776338,77.763
1753555776373,77.642615
1753555776413,77.584157
1753555776440,77.590323
1753555776477,78.158491
1753555776508,78.177124
1753555776538,78.201557
1753555776573,78.200314
1753555776602,77.935618
1753555776638,78.201004
1753555776673,77.914615
1753555776709,77.918372
1753555776737,77.929277
1753555776771,77.937337
1753555776801,77.948763
1753555776834,77.959564
1753555776873,77.963086
1753555776903,77.975475
1753555776938,77.990338
1753555776975,77.97942
1753555777003,77.977565
1753555777038,78.007865
1753555777072,78.004753
1753555777102,77.961647
1753555777143,77.90901
1753555777171,77.867486
1753555777202,77.83285
1753555777242,77.848332
1753555777271,77.893463
1753555777303,77.904309
1753555777338,77.901972
1753555777372,77.930097
1753555777404,77.948346
1753555777437,77.914765
1753555777471,77.894863
1753555777507,77.918079
1753555777537,77.950618
1753555777567,77.950267
1753555777600,77.949687
1753555777636,77.980469
1753555777669,77.983437
1753555777704,77.969974
1753555777737,77.988509
1753555777768,78.028887
1753555777804,78.036361
1753555777838,78.008652
1753555777868,77.986699
1753555777904,77.96903
1753555777938,77.939811
1753555777970,77.938431
1753555777997,77.985241
1753555778034,78.006042
1753555778071,77.988444
1753555778104,78.001816
1753555778134,78.023125
1753555778169,78.017865
1753555778203,77.996198
1753555778238,78.018763
1753555778272,78.032936
1753555778301,78.023965
1753555778337,78.041739
1753555778371,78.047338
1753555778401,78.057383
1753555778438,78.075424
1753555778471,78.069421
1753555778502,78.058457
1753555778537,78.075105
1753555778572,78.090059
1753555778601,78.073405
1753555778637,78.101732
1753555778671,78.111453
1753555778701,78.029876
1753555778738,77.953971
1753555778771,77.91776
1753555778801,77.915175
1753555778838,77.936523
1753555778872,77.956334
1753555778902,77.962291
1753555778933,77.968034
1753555778971,77.97612
1753555779001,77.953795
1753555779039,77.959192
1753555779072,77.979798
1753555779104,77.968867
1753555779138,77.964121
1753555779171,77.998255
1753555779201,78.003177
1753555779238,77.990182
1753555779272,77.995293
1753555779304,77.994811
1753555779337,78.011576
1753555779371,78.019655
1753555779402,78.007891
1753555779434,78.033119
1753555779471,78.041341
1753555779502,78.02543
1753555779538,78.047617
1753555779571,78.076192
1753555779601,78.049193
1753555779638,78.050261
1753555779672,78.088672
1753555779703,78.046713
1753555779734,77.936647
1753555779769,77.899055
1753555779795,77.880566
1753555779829,77.862519
1753555779864,77.885754
1753555779896,77.915123
1753555779932,77.911425
1753555779969,77.907441
1753555780005,77.916282
1753555780037,77.904453
1753555780066,77.886562
1753555780099,77.911842
1753555780129,77.937428
1753555780164,77.922441
1753555780202,77.922708
1753555780238,77.961705
1753555780271,77.952252
1753555780302,77.933587
1753555780337,77.942591
1753555780371,77.956406
1753555780401,77.965462
1753555780429,77.943737
1753555780461,77.956106
1753555780498,77.982083
1753555780531,77.963958
1753555780565,77.97345
1753555780596,78.014928
1753555780632,78.012474
1753555780668,78.004928
1753555780706,78.02211
1753555780737,77.954655
1753555780768,77.847362
1753555780804,77.83414
1753555780831,77.860969
1753555780861,77.853365
1753555780894,78.117045
1753555780928,78.141824
1753555780959,78.146498
1753555780993,78.143347
1753555781027,78.145971
1753555781065,78.140411
1753555781096,78.160353
1753555781133,78.188901
1753555781166,78.190841
1753555781198,78.193523
1753555781228,78.215776
1753555781261,78.202436
1753555781305,78.199546
1753555781337,77.923144
1753555781365,77.912493
1753555781408,77.648631
1753555781434,77.957064
1753555781469,77.957285
1753555781494,77.977389
1753555781533,77.993626
1753555781565,77.713305
1753555781598,77.741658
1753555781630,77.752609
1753555781662,77.739087
1753555781696,77.754855
1753555781730,77.766997
1753555781762,77.694653
1753555781803,77.589939
1753555781831,77.534281
1753555781864,78.093301
1753555781894,78.135932
1753555781928,78.379644
1753555781964,78.126225
1753555781994,78.146603
1753555782028,78.158829
1753555782061,78.150561
1753555782096,78.132781
1753555782129,78.136433
1753555782167,78.17073
1753555782197,78.175542
1753555782228,78.162189
1753555782262,78.198152
1753555782298,78.204194
1753555782327,78.186427
1753555782364,78.202104
1753555782398,78.21047
1753555782428,78.208764
1753555782465,78.214793
1753555782493,78.223016
1753555782526,78.231551
1753555782563,78.226024
1753555782594,77.962324
1753555782629,77.960482
1753555782661,77.967532
1753555782694,77.964017
1753555782730,77.963756
1753555782767,77.997832
1753555782793,77.990872
1753555782828,77.941009
1753555782861,77.870338
1753555782893,77.806066
1753555782930,77.762557
1753555782964,78.04099
1753555782990,78.346454
1753555783038,78.343537
1753555783063,78.32521
1753555783095,78.079955
1753555783127,78.344638
1753555783163,78.07793
1753555783194,78.066836
1753555783228,78.076843
1753555783260,78.097475
1753555783295,78.364215
1753555783329,78.350543
1753555783362,78.347821
1753555783394,78.388499
1753555783428,78.150847
1753555783467,78.134838
1753555783496,77.854302
1753555783528,78.137227
1753555783560,77.880598
1753555783595,77.889283
1753555783626,78.159435
1753555783663,77.903189
1753555783696,77.907695
1753555783727,77.924134
1753555783758,78.208751
1753555783791,78.200314
1753555783827,78.202156
1753555783861,77.884843
1753555783896,77.780396
1753555783927,77.738892
1753555783959,77.758208
1753555784001,77.777765
1753555784029,77.791171
1753555784059,78.09293
1753555784095,78.10435
1753555784129,78.331994
1753555784159,78.079226
1753555784193,78.327932
1753555784228,78.071205
1753555784259,78.090157
1753555784295,78.113907
1753555784328,78.114949
1753555784359,78.364332
1753555784393,78.36745
1753555784426,78.380419
1753555784459,78.150672
1753555784492,78.148315
1753555784527,78.132585
1753555784562,78.162312
1753555784595,77.925123
1753555784625,77.929563
1753555784661,77.915188
1753555784694,77.881432
1753555784726,77.875266
1753555784759,77.875917
1753555784794,77.893541
1753555784824,77.903027
1753555784859,77.853397
1753555784894,77.729425
1753555784928,77.657823
1753555784961,77.652862
1753555784991,77.671254
1753555785024,77.670857
1753555785059,77.673227
1753555785092,77.957174
1753555785127,77.984531
1753555785158,78.253582
1753555785193,77.977109
1753555785227,78.216792
1753555785258,78.243016
1753555785293,78.010586
1753555785328,78.006914
1753555785359,78.007396
1753555785392,78.034245
1753555785426,78.041088
1753555785457,78.028301
1753555785490,78.035808
1753555785528,78.069968
1753555785557,78.062793
1753555785591,78.048386
1753555785627,78.059395
1753555785656,78.087618
1753555785694,78.097279
1753555785727,78.086693
1753555785758,78.090157
1753555785790,78.100508
1753555785822,78.103777
1753555785857,78.107611
1753555785891,78.079532
1753555785926,77.988463
1753555785959,77.892883
1753555785998,77.860533
1753555786024,78.141694
1753555786060,78.391038
1753555786093,78.390953
1753555786126,78.390445
1753555786158,78.159337
1753555786193,78.408395
1753555786228,78.17239
1753555786257,78.132761
1753555786290,78.14478
1753555786327,78.179194
1753555786356,78.180971
1753555786394,78.194734
1753555786426,78.215672
1753555786456,78.212423
1753555786490,78.206316
1753555786525,78.223061
1753555786556,78.241108
1753555786587,78.232345
1753555786621,78.228061
1753555786659,78.240672
1753555786692,78.261447
1753555786724,78.249741
1753555786759,78.250692
1753555786794,78.269898
1753555786828,78.284787
1753555786854,78.249539
1753555786889,78.179936
1753555786920,77.85899
1753555786953,77.834511
1753555786992,77.861809
1753555787025,78.163705
1753555787055,77.92666
1753555787091,78.179148
1753555787124,78.1892
1753555787158,77.947754
1753555787202,77.929296
1753555787225,77.927207
1753555787258,78.198908
1753555787300,78.232404
1753555787325,77.974948
1753555787358,77.976738
1753555787393,77.996406
1753555787423,78.264995
1753555787458,78.007604
1753555787494,78.011634
1753555787527,78.033789
1753555787557,78.283843
1753555787590,78.280301
1753555787619,78.293622
1753555787657,78.061595
1753555787692,78.057546
1753555787724,78.058568
1753555787757,78.075222
1753555787791,78.047409
1753555787820,77.663442
1753555787857,77.590421
1753555787892,77.583982
1753555787924,77.882636
1753555787958,77.898886
1753555787993,77.912102
1753555788027,77.939589
1753555788060,77.934817
1753555788090,78.179265
1753555788122,78.185522
1753555788159,78.207391
1753555788195,78.194806
1753555788225,78.196128
1753555788260,78.220086
1753555788298,78.243335
1753555788325,78.234852
1753555788358,78.233322
1753555788393,78.248986
1753555788425,78.268218
1753555788459,78.263166
1753555788492,78.264787
1753555788522,78.292111
1753555788557,78.292567
1753555788591,78.28411
1753555788623,78.299305
1753555788656,78.326929
1753555788690,78.063451
1753555788722,78.064473
1753555788758,78.088113
1753555788797,78.048809
1753555788822,77.934544
1753555788856,77.867011
1753555788890,77.874752
1753555788921,78.156648
1753555788957,78.162866
1753555788992,78.184122
1753555789021,77.931113
1753555789057,77.926569
1753555789091,77.925091
1753555789123,78.180984
1753555789151,77.918645
1753555789184,78.174174
1753555789220,77.941198
1753555789256,78.210633
1753555789291,77.95498
1753555789321,77.960794
1753555789356,77.979095
1753555789387,77.97901
1753555789423,78.233589
1753555789459,78.245327
1753555789495,78.251838
1753555789520,77.992018
1753555789557,77.995059
1753555789592,78.013093
1753555789625,78.008685
1753555789656,78.003691
1753555789690,78.022448
1753555789723,78.03364
1753555789756,77.953776
1753555789791,77.862141
1753555789821,77.830227
1753555789856,78.079167
1753555789887,78.346487
1753555789921,78.585915
1753555789955,78.608813
1753555789990,78.408173
1753555790024,78.396539
1753555790055,78.61977
1753555790088,78.396988
1753555790120,78.399547
1753555790152,78.40691
1753555790186,78.42721
1753555790221,78.450589
1753555790256,78.446969
1753555790287,78.453668
1753555790322,78.250236
1753555790356,78.261362
1753555790386,78.008704
1753555790420,78.018418
1753555790456,78.036615
1753555790488,77.757557
1753555790522,78.018679
1753555790558,78.045007
1753555790587,77.794243
1753555790621,77.788762
1753555790663,77.733253
1753555790692,77.651515
1753555790722,77.595805
1753555790757,77.866516
1753555790787,78.153217
1753555790820,78.178829
1753555790853,78.176394
1753555790884,77.927753
1753555790920,78.186401
1753555790954,77.942727
1753555790988,77.925175
1753555791020,78.184917
1753555791058,78.191017
1753555791090,78.212651
1753555791119,77.965416
1753555791156,77.973945
1753555791187,77.993991
1753555791220,78.241896
1753555791259,78.239253
1753555791290,78.258693
1753555791320,78.270985
1753555791358,78.015163
1753555791390,78.022637
1753555791419,78.039766
1753555791455,78.046198
1753555791493,77.778657
1753555791523,77.781607
1753555791555,77.80729
1753555791592,77.801822
1753555791621,77.729549
1753555791654,77.631788
1753555791690,77.609073
1753555791719,77.607165
1753555791751,77.899042
1753555791784,77.920533
1753555791820,77.927897
1753555791851,77.934602
1753555791889,78.197508
1753555791920,78.193009
1753555791950,78.182071
1753555791986,78.18823
1753555792021,78.191609
1753555792053,77.954661
1753555792087,77.963821
1753555792124,77.698618
1753555792156,77.971347
1753555792187,77.979095
1753555792223,77.979674
1753555792253,77.988848
1753555792287,77.999023
1753555792321,77.725011
1753555792352,78.004434
1753555792386,77.745213
1753555792420,77.749373
1753555792452,77.751398
1753555792487,78.027403
1753555792520,78.042435
1753555792550,78.055651
1753555792587,77.773768
1753555792621,77.68173
1753555792652,77.597953
1753555792684,77.839862
1753555792721,77.856275
1753555792751,77.890383
1753555792784,77.90496
1753555792821,77.906985
1753555792851,78.172443
1753555792882,78.170763
1753555792917,78.163595
1753555792951,78.154806
1753555792983,78.162247
1753555793015,78.180092
1753555793049,77.920624
1753555793079,77.935065
1753555793113,77.947994
1753555793151,77.957207
1753555793181,77.949101
1753555793216,77.959909
1753555793251,77.975514
1753555793282,77.987988
1753555793314,77.982708
1753555793352,77.987897
1753555793382,78.008691
1753555793410,78.017461
1753555793444,78.011673
1753555793481,78.02388
1753555793511,77.99651
1753555793544,77.908248
1753555793578,77.840097
1753555793613,77.832766
1753555793649,78.115886
1753555793687,78.133842
1753555793718,78.157742
1753555793750,77.912011
1753555793781,77.916881
1753555793815,77.915813
1753555793848,77.915292
1753555793880,77.914381
1753555793918,77.918632
1753555793952,77.931959
1753555793988,78.20355
1753555794020,78.224129
1753555794050,78.227873
1753555794076,78.215073
1753555794112,78.2248
1753555794143,78.233374
1753555794182,78.241584
1753555794216,78.253159
1753555794247,78.251082
1753555794278,78.00015
1753555794311,78.262046
1753555794348,78.0189
1753555794378,78.033867
1753555794411,78.021751
1753555794444,77.923535
1753555794475,77.847584
1753555794509,77.549353
1753555794542,77.848554
1753555794579,77.879094
1753555794611,77.884055
1753555794642,77.886575
1753555794686,77.896594
1753555794714,78.151062
1753555794743,77.895077
1753555794786,77.890696
1753555794820,77.906282
1753555794850,78.173432
1753555794878,77.920989
1753555794911,77.929388
1753555794945,77.945768
1753555794977,77.963229
1753555795012,77.950364
1753555795052,77.959622
1753555795079,77.97237
1753555795115,77.974245
1753555795145,77.987891
1753555795178,77.979264
1753555795209,77.986276
1753555795241,77.726404
1753555795278,77.735539
1753555795311,77.746034
1753555795346,78.012331
1753555795380,77.972506
1753555795411,77.875793
1753555795445,77.555381
1753555795477,77.555284
1753555795510,77.563871
1753555795547,77.865351
1753555795582,77.893391
1753555795613,77.890598
1753555795644,77.879465
1753555795681,77.615915
1753555795711,77.880188
1753555795746,77.601501
1753555795777,77.621469
1753555795811,77.642237
1753555795844,77.920325
1753555795877,77.924537
1753555795915,77.928352
1753555795947,77.678741
1753555795979,77.67673
1753555796010,77.67852
1753555796050,77.938964
1753555796077,77.973965
1753555796114,77.96612
1753555796146,77.957539
1753555796176,77.720428
1753555796210,77.741645
1753555796248,77.717199
1753555796279,77.643364
1753555796309,77.623396
1753555796342,77.613246
1753555796377,77.592706
1753555796415,77.615499
1753555796446,77.675519
1753555796478,77.703572
1753555796509,77.657869
1753555796547,77.668377
1753555796583,77.710363
1753555796613,77.68324
1753555796645,77.677635
1753555796676,77.424645
1753555796710,77.463707
1753555796745,77.466234
1753555796782,77.446878
1753555796816,77.483799
1753555796844,77.521299
1753555796875,77.498252
1753555796909,77.558454
1753555796944,78.995384
1753555796976,81.554593
1753555797011,83.540472
1753555797045,81.082149
1753555797075,81.19879
1753555797109,79.200184
1753555797142,77.751925
1753555797181,77.487718
1753555797209,77.582387
1753555797242,77.646397
1753555797275,77.533428
1753555797312,77.50182
1753555797345,77.263342
1753555797376,77.145717
1753555797410,77.454573
1753555797443,77.488206
1753555797476,77.757498
1753555797508,77.780311
1753555797541,77.51473
1753555797575,77.54003
1753555797609,77.564945
1753555797641,77.569281
1753555797677,77.582738
1753555797713,77.617491
1753555797749,77.630095
1753555797784,77.614132
1753555797810,77.580056
1753555797842,77.659815
1753555797874,77.631443
1753555797912,77.574756
1753555797941,77.565518
1753555797976,77.598064
1753555798016,77.456201
1753555798043,77.289852
1753555798077,77.370706
1753555798118,77.499281
1753555798143,77.431735
1753555798172,77.401161
1753555798214,77.572374
1753555798241,77.572289
1753555798276,77.73326
1753555798307,77.457444
1753555798342,77.578415
1753555798376,77.529782
1753555798408,77.402535
1753555798441,77.516136
1753555798474,77.589437
1753555798510,77.436311
1753555798543,77.440302
1753555798575,77.49307
1753555798607,77.377874
1753555798644,77.331141
1753555798674,77.365706
1753555798709,77.40206
1753555798743,77.66324
1753555798778,77.680382
1753555798809,78.014538
1753555798839,77.956979
1753555798875,77.573786
1753555798907,77.326174
1753555798937,77.765226
1753555798969,77.745558
1753555799015,77.730467
1753555799044,77.516371
1753555799075,77.862831
1753555799110,77.414586
1753555799142,77.383785
1753555799182,77.499313
1753555799220,77.501546
1753555799243,77.683748
1753555799274,77.445348
1753555799309,77.574841
1753555799342,77.434606
1753555799377,77.436709
1753555799410,77.566683
1753555799439,77.528037
1753555799477,77.449241
1753555799509,77.512158
1753555799539,77.560355
1753555799575,77.534893
1753555799610,77.538207
1753555799642,77.524111
1753555799674,77.601332
1753555799705,77.543727
1753555799741,77.435582
1753555799774,77.686391
1753555799807,77.837245
1753555799842,77.532516
1753555799875,77.246961
1753555799908,77.691554
1753555799941,77.549561
1753555799977,77.559092
1753555800011,77.533252
1753555800044,78.073086
1753555800072,77.495576
1753555800108,77.405081
1753555800137,77.927415
1753555800174,78.198198
1753555800208,77.505127
1753555800242,77.593233
1753555800274,78.011921
1753555800308,77.807382
1753555800342,77.528363
1753555800375,77.338466
1753555800406,78.045007
1753555800442,77.515563
1753555800475,77.365054
1753555800510,77.844029
1753555800544,78.620844
1753555800575,77.84539
1753555800610,77.680284
1753555800641,78.975983
1753555800672,78.636788
1753555800705,77.978027
1753555800741,77.671404
1753555800775,78.199272
1753555800807,78.265679
1753555800840,77.733123
1753555800873,77.900559
1753555800909,78.822942
1753555800941,78.263973
1753555800982,77.346369
1753555801009,78.308407
1753555801039,79.027715
1753555801071,77.768488
1753555801102,77.876008
1753555801134,78.272013
1753555801168,78.323414
1753555801203,77.480934
1753555801237,77.266434
1753555801272,77.81343
1753555801305,77.7488
1753555801337,76.947226
1753555801372,77.450153
1753555801407,78.309266
1753555801442,77.819927
1753555801475,77.619672
1753555801506,78.611723
1753555801539,78.959212
1753555801574,78.1842
1753555801609,78.023047
1753555801642,78.583174
1753555801675,78.602003
1753555801709,77.829999
1753555801738,78.204428
1753555801779,78.845865
1753555801805,78.547354
1753555801836,78.255366
1753555801873,78.535961
1753555801906,79.584366
1753555801940,78.898639
1753555801982,77.99095
1753555802005,78.979531
1753555802040,79.43693
1753555802074,78.82233
1753555802107,78.44262
1753555802136,79.227736
1753555802170,79.2898
1753555802205,78.839875
1753555802238,78.543942
1753555802275,79.608728
1753555802309,79.380562
1753555802340,77.689861
1753555802372,79.614633
1753555802408,80.726658
1753555802439,78.791171
1753555802475,78.229279
1753555802507,80.158881
1753555802536,78.770799
1753555802573,77.669132
1753555802607,79.109135
1753555802638,79.191466
1753555802674,78.103666
1753555802708,77.761867
1753555802739,79.643865
1753555802773,78.889296
1753555802806,77.808078
1753555802834,78.377821
1753555802873,78.76923
1753555802906,78.4004
1753555802942,77.877369
1753555802978,78.73091
1753555803004,79.551846
1753555803042,78.471448
1753555803071,78.437405
1753555803104,78.293166
1753555803137,78.869511
1753555803173,78.296792
1753555803208,78.184539
1753555803237,79.669347
1753555803274,80.431071
1753555803309,79.6346
1753555803337,79.468232
1753555803375,80.05194
1753555803409,80.461911
1753555803446,79.667003
1753555803470,79.0178
1753555803505,80.66934
1753555803537,81.524372
1753555803571,79.419729
1753555803601,79.717733
1753555803637,80.650558
1753555803675,80.931432
1753555803708,79.135619
1753555803742,79.656912
1753555803773,81.390842
1753555803802,80.370946
1753555803836,79.238582
1753555803870,79.440048
1753555803905,80.385601
1753555803942,80.024238
1753555803972,78.808788
1753555804008,79.590577
1753555804036,80.32329
1753555804073,79.216401
1753555804105,79.416324
1753555804141,81.055065
1753555804171,81.928626
1753555804203,80.501266
1753555804239,80.607504
1753555804272,81.263485
1753555804305,81.211863
1753555804340,80.602022
1753555804374,81.068047
1753555804406,81.500915
1753555804440,81.168679
1753555804470,80.074812
1753555804505,80.556241
1753555804536,80.859166
1753555804574,79.476572
1753555804604,79.01278
1753555804634,80.657563
1753555804670,81.004388
1753555804705,79.329722
1753555804741,79.515023
1753555804770,81.003613
1753555804806,80.359084
1753555804837,79.378505
1753555804867,79.823488
1753555804908,82.0228
1753555804939,80.972702
1753555804971,79.522028
1753555805007,80.422783
1753555805038,83.484085
1753555805075,82.069082
1753555805108,81.492419
1753555805137,83.107169
1753555805170,84.085697
1753555805203,82.435074
1753555805240,82.519574
1753555805274,83.634347
1753555805308,83.873684
1753555805335,82.455901
1753555805372,83.049857
1753555805403,84.023522
1753555805436,83.651306
1753555805472,83.800467
1753555805509,84.569262
1753555805539,84.231974
1753555805574,84.110854
1753555805604,83.263608
1753555805639,82.565498
1753555805670,82.253843
1753555805700,83.447431
1753555805737,82.80826
1753555805770,81.651124
1753555805800,84.44512
1753555805834,84.265894
1753555805870,81.61087
1753555805904,83.316259
1753555805934,85.826672
1753555805971,83.290308
1753555806000,82.476377
1753555806044,83.426598
1753555806068,82.592536
1753555806100,80.928183
1753555806137,81.604945
1753555806169,80.683911
1753555806203,80.388206
1753555806238,80.557823
1753555806270,80.259116
1753555806298,79.45872
1753555806331,78.519834
1753555806368,78.77037
1753555806400,79.285399
1753555806437,78.163133
1753555806470,77.56695
1753555806500,77.794439
1753555806536,78.518623
1753555806570,77.577204
1753555806604,77.647895
1753555806636,78.057116
1753555806668,77.505667
1753555806703,77.451637
1753555806736,77.976146
1753555806769,78.520518
1753555806802,78.356578
1753555806836,78.509203
1753555806867,79.244709
1753555806900,78.735675
1753555806936,78.104994
1753555806967,78.576931
1753555807003,79.003021
1753555807036,78.869127
1753555807073,77.922832
1753555807111,78.126355
1753555807136,78.946204
1753555807168,78.686307
1753555807211,78.42525
1753555807242,78.86675
1753555807269,79.405862
1753555807303,79.0792
1753555807333,77.557621
1753555807370,78.147286
1753555807403,79.523571
1753555807433,78.169357
1753555807467,77.696385
1753555807503,79.11864
1753555807533,78.79552
1753555807567,77.373909
1753555807600,78.485771
1753555807634,80.142293
1753555807666,78.505622
1753555807699,78.869739
1753555807736,81.147221
1753555807769,79.687316
1753555807800,78.470726
1753555807836,80.016628
1753555807869,80.741541
1753555807900,78.975221
1753555807930,79.041511
1753555807963,81.3626
1753555807998,80.727733
1753555808036,78.563415
1753555808071,79.496006
1753555808100,81.496722
1753555808137,79.992331
1753555808170,79.149812
1753555808200,79.777713
1753555808236,80.917161
1753555808270,80.425882
1753555808300,79.412073
1753555808336,79.844237
1753555808370,81.424514
1753555808400,80.312743
1753555808434,79.680122
1753555808467,80.514248
1753555808503,82.006152
1753555808536,79.485381
1753555808567,79.970039
1753555808603,82.747492
1753555808636,82.418759
1753555808666,80.671131
1753555808703,80.731802
1753555808736,82.543096
1753555808762,82.339859
1753555808799,81.000736
1753555808830,80.782844
1753555808860,83.372528
1753555808896,82.038197
1753555808937,79.415914
1753555808969,81.31342
1753555809002,83.510524
1753555809033,80.730688
1753555809069,79.580577
1753555809098,82.110893
1753555809127,81.539613
1753555809164,81.264305
1753555809193,80.763677
1753555809230,81.934889
1753555809262,81.746867
1753555809298,79.415413
1753555809326,80.60266
1753555809368,82.890605
1753555809396,80.858144
1753555809426,79.606846
1753555809458,82.301317
1753555809492,84.066504
1753555809527,81.209396
1753555809563,79.769439
1753555809602,82.746281
1753555809636,82.922148
1753555809670,80.35204
1753555809694,81.119962
1753555809732,83.118627
1753555809764,82.038861
1753555809794,80.009909
1753555809831,80.750024
1753555809862,82.468896
1753555809894,80.626215
1753555809926,81.05556
1753555809960,81.275119
1753555809995,81.679555
1753555810028,81.788918
1753555810060,81.197664
1753555810094,81.167924
1753555810130,82.099467
1753555810159,82.169578
1753555810195,81.41109
1753555810227,80.418551
1753555810263,82.897493
1753555810297,82.71143
1753555810326,81.747192
1753555810359,81.695486
1753555810394,82.95084
1753555810430,82.781789
1753555810462,81.262437
1753555810496,82.083008
1753555810527,83.187723
1753555810564,82.332574
1753555810596,81.601326
1753555810626,82.784308
1753555810658,83.112787
1753555810694,81.677635
1753555810727,81.34995
1753555810760,82.453974
1753555810792,82.43053
1753555810825,81.258192
1753555810863,80.987233
1753555810893,81.4482
1753555810926,81.48081
1753555810963,81.026895
1753555810993,80.552165
1753555811027,81.503844
1753555811063,81.870813
1753555811092,80.945755
1753555811126,81.243172
1753555811165,83.924707
1753555811194,82.940058
1753555811228,81.627693
1753555811264,82.831125
1753555811293,83.418453
1753555811328,82.012194
1753555811362,81.565245
1753555811393,83.285972
1753555811426,83.18243
1753555811459,82.369833
1753555811496,82.62408
1753555811531,83.308387
1753555811562,83.213856
1753555811592,82.423551
1753555811629,82.073562
1753555811657,82.764185
1753555811691,82.914303
1753555811724,81.431403
1753555811769,82.040684
1753555811791,83.15463
1753555811824,81.530733
1753555811857,80.831229
1753555811893,82.473668
1753555811924,83.477314
1753555811959,81.936334
1753555811994,81.177976
1753555812027,83.830207
1753555812057,85.724184
1753555812096,83.610095
1753555812127,82.433427
1753555812158,85.423108
1753555812194,85.163556
1753555812229,82.416995
1753555812261,84.131368
1753555812297,85.733319
1753555812326,84.383766
1753555812359,83.354631
1753555812395,84.323479
1753555812424,85.80315
1753555812458,83.997174
1753555812494,82.800936
1753555812526,84.990983
1753555812559,84.687329
1753555812596,82.879407
1753555812625,84.657296
1753555812659,84.665095
1753555812694,83.911432
1753555812724,83.51777
1753555812758,83.090984
1753555812793,84.143588
1753555812824,84.059206
1753555812856,82.703019
1753555812890,84.651352
1753555812924,86.728865
1753555812962,84.499294
1753555812993,84.107423
1753555813027,85.537054
1753555813060,84.506429
1753555813092,84.707446
1753555813125,83.214943
1753555813162,83.682042
1753555813195,84.069935
1753555813224,83.976946
1753555813259,83.727667
1753555813291,84.566104
1753555813326,83.806405
1753555813360,83.743175
1753555813390,84.438896
1753555813425,83.563265
1753555813460,83.683364
1753555813490,84.437614
1753555813525,83.724406
1753555813560,83.919967
1753555813590,84.819387
1753555813626,84.114285
1753555813659,84.169708
1753555813690,83.95028
1753555813726,85.689959
1753555813759,85.65919
1753555813792,84.215652
1753555813824,86.508838
1753555813857,86.423902
1753555813889,84.384775
1753555813925,84.929368
1753555813958,85.52277
1753555813989,85.775344
1753555814025,84.553675
1753555814060,85.556397
1753555814089,86.18629
1753555814123,85.371409
1753555814159,84.697283
1753555814189,85.570551
1753555814221,85.157853
1753555814256,84.246024
1753555814288,85.24689
1753555814323,84.747882
1753555814357,84.073666
1753555814392,84.39648
1753555814424,85.131433
1753555814459,84.685389
1753555814492,83.945696
1753555814523,84.622511
1753555814559,84.887825
1753555814593,84.959759
1753555814623,85.244813
1753555814656,85.829237
1753555814697,85.813234
1753555814726,85.944017
1753555814761,85.825565
1753555814792,84.761021
1753555814821,83.664594
1753555814857,84.747212
1753555814890,84.045131
1753555814920,83.298244
1753555814958,84.073737
1753555814990,84.504632
1753555815022,83.341408
1753555815058,82.541214
1753555815094,83.495732
1753555815126,84.48514
1753555815157,83.187273
1753555815191,83.079532
1753555815224,84.451832
1753555815258,83.641052
1753555815292,81.763065
1753555815322,83.623285
1753555815357,83.394234
1753555815391,82.51249
1753555815425,81.960091
1753555815459,83.082514
1753555815492,83.367242
1753555815524,81.186394
1753555815557,82.144395
1753555815592,83.94416
1753555815625,84.362782
1753555815658,83.596254
1753555815690,83.091498
1753555815727,84.635414
1753555815757,83.285386
1753555815790,81.85539
1753555815823,81.371786
1753555815856,80.997279
1753555815888,80.877558
1753555815923,81.353804
1753555815955,77.662726
1753555815986,78.816731
1753555816023,77.755383
1753555816057,80.06711
1753555816096,80.140411
1753555816128,81.044154
1753555816154,83.684881
1753555816188,83.359892
1753555816221,83.862232
1753555816257,84.522289
1753555816290,83.231811
1753555816323,83.210053
1753555816358,81.613441
1753555816392,80.556495
1753555816423,80.441259
1753555816456,79.453174
1753555816490,78.839888
1753555816527,79.204715
1753555816556,79.03808
1753555816587,80.025788
1753555816624,79.796913
1753555816657,80.815513
1753555816690,80.772238
1753555816724,80.583077
1753555816754,78.445511
1753555816785,76.349774
1753555926127,92.637973
1753555926183,228.411083
1753555926211,228.726281
1753555926240,228.844576
1753555926275,228.606007
1753555926307,228.894459
1753555926336,226.513382
1753555926371,219.683826
1753555926403,208.077123
1753555926436,192.913951
1753555926470,175.956712
1753555926503,160.521371
1753555926536,117.128569
1753555926570,101.063542
1753555926602,90.074486
1753555926641,83.548148
1753555926670,80.786737
1753555926704,80.004076
1753555926736,79.783866
1753555926769,79.614984
1753555926802,79.664763
1753555926835,79.707238
1753555926868,79.874374
1753555926903,80.000658
1753555926936,80.114382
1753555926970,80.270484
1753555927003,80.409768
1753555927035,79.928756
1753555927069,79.625369
1753555927102,79.534587
1753555927135,79.203302
1753555927169,79.108803
1753555927201,79.075378
1753555927235,79.001094
1753555927268,78.75408
1753555927301,78.435361
1753555927335,78.194917
1753555927369,79.254702
1753555927402,79.674731
1753555927435,80.160776
1753555927470,80.384527
1753555927503,80.585713
1753555927535,80.561468
1753555927569,80.500967
1753555927602,80.496579
1753555927636,80.472861
1753555927669,80.469443
1753555927702,80.424567
1753555927735,80.421858
1753555927769,80.399553
1753555927802,80.368551
1753555927835,80.340796
1753555927869,80.323733
1753555927902,80.310132
1753555927935,80.262573
1753555927970,81.182996
1753555928001,81.14463
1753555928034,81.258856
1753555928068,81.217684
1753555928101,81.403675
1753555928143,81.428974
1753555928169,81.456064
1753555928201,81.439384
1753555928235,81.68546
1753555928268,81.493551
1753555928301,81.598884
1753555928334,81.87149
1753555928368,81.877909
1753555928402,81.894205
1753555928435,81.944928
1753555928468,81.968919
1753555928503,82.24467
1753555928542,82.228055
1753555928569,82.254168
1753555928601,82.288394
1753555928633,82.34702
1753555928668,82.105606
1753555928704,82.144669
1753555928737,82.187579
1753555928769,82.251551
1753555928801,82.279807
1753555928834,82.337906
1753555928868,82.378473
1753555928901,82.130476
1753555928934,82.185672
1753555928966,82.007663
1753555929001,82.068516
1753555929031,82.118093
1753555929067,82.162599
1753555929103,82.197143
1753555929134,82.151524
1753555929168,81.688234
1753555929202,81.560544
1753555929234,81.549802
1753555929267,81.583044
1753555929301,81.627465
1753555929334,81.66865
1753555929368,81.741131
1753555929402,81.780982
1753555929436,81.833169
1753555929468,81.870657
1753555929501,81.922819
1753555929538,82.00401
1753555929565,82.125789
1753555929598,82.201811
1753555929631,82.232306
1753555929666,82.290204
1753555929700,82.36734
1753555929735,82.449612
1753555929767,82.228888
1753555929804,82.265965
1753555929834,82.08379
1753555929867,82.158041
1753555929903,81.978125
1753555929934,82.073288
1753555929968,81.965475
1753555930000,81.982259
1753555930030,81.765122
1753555930071,81.386363
1753555930101,81.133556
1753555930134,81.012806
1753555930165,81.005723
1753555930202,81.209995
1753555930233,81.437021
1753555930266,81.666404
1753555930298,81.682843
1753555930336,81.736066
1753555930366,81.806841
1753555930397,81.790624
1753555930432,81.651065
1753555930465,81.687648
1753555930498,81.736515
1753555930530,81.805747
1753555930565,81.659249
1753555930597,81.701111
1753555930632,81.532152
1753555930665,81.790519
1753555930698,81.632765
1753555930730,81.698253
1753555930764,81.737134
1753555930799,81.975833
1753555930832,81.85287
1753555930867,81.840956
1753555930899,81.448414
1753555930935,81.421207
1753555930966,81.268895
1753555930999,81.261082
1753555931030,81.294032
1753555931064,81.316148
1753555931098,81.313733
1753555931129,81.321623
1753555931165,81.302782
1753555931197,81.245646
1753555931232,81.246538
1753555931264,81.270138
1753555931298,81.288758
1753555931330,81.548181
1753555931365,81.633429
1753555931397,81.682836
1753555931430,81.759041
1753555931464,81.908554
1753555931499,81.997539
1753555931529,82.118783
1753555931564,82.189884
1753555931598,82.238856
1753555931630,82.314188
1753555931668,82.35706
1753555931700,82.286317
1753555931733,81.761808
1753555931765,81.526384
1753555931798,81.213224
1753555931833,81.390842
1753555931867,81.399345
1753555931898,81.427405
1753555931933,81.447229
1753555931965,81.272775
1753555931999,81.26398
1753555932028,81.238862
1753555932065,81.448213
1753555932098,81.668331
1753555932132,81.710662
1753555932164,81.727902
1753555932198,81.747889
1753555932234,81.591605
1753555932265,81.639822
1753555932299,81.673637
1753555932333,81.707609
1753555932370,81.759471
1753555932396,81.583591
1753555932429,81.612159
1753555932464,81.628858
1753555932499,81.67964
1753555932533,81.659627
1753555932566,81.480615
1753555932605,81.219077
1753555932632,81.103314
1753555932664,81.078497
1753555932697,81.090736
1753555932729,81.30521
1753555932764,81.534554
1753555932797,81.563135
1753555932831,81.574066
1753555932864,81.554398
1753555932898,81.577048
1753555932928,81.592751
1753555932964,81.6374
1753555932997,81.673032
1753555933031,81.70268
1753555933064,81.762192
1753555933096,81.797609
1753555933130,81.84272
1753555933163,81.6852
1753555933196,81.714614
1753555933230,81.74852
1753555933263,81.817935
1753555933296,81.847753
1753555933330,81.677563
1753555933363,81.738657
1753555933397,81.786756
1753555933430,81.754172
1753555933464,81.322138
1753555933497,81.091967
1753555933527,81.014141
1753555933560,81.033112
1753555933594,81.040586
1753555933632,81.093588
1753555933667,81.329612
1753555933698,81.57529
1753555933732,81.584626
1753555933762,81.562419
1753555933797,81.574183
1753555933826,81.604431
1753555933859,81.629386
1753555933890,81.449658
1753555933922,81.51794
1753555933956,81.550082
1753555933991,81.809302
1753555934024,81.886757
1753555934055,81.908587
1753555934092,81.717355
1753555934122,81.786236
1753555934157,81.79802
1753555934189,81.836503
1753555934221,81.903613
1753555934258,81.92082
1753555934289,81.905051
1753555934325,81.672146
1753555934356,81.16644
1753555934390,81.038268
1753555934427,81.014649
1753555934460,80.991745
1753555934490,80.989088
1753555934524,81.237723
1753555934558,81.442666
1753555934596,81.456539
1753555934626,81.454339
1753555934657,81.430725
1753555934692,81.652446
1753555934722,81.491351
1753555934757,81.516384
1753555934790,81.545739
1753555934822,81.600531
1753555934859,81.625284
1753555934893,81.672765
1753555934928,81.711535
1753555934962,81.750715
1753555934989,81.783404
1753555935026,81.826509
1753555935059,81.858267
1753555935090,81.904706
1753555935129,81.973685
1753555935165,82.000384
1753555935198,81.765682
1753555935223,81.534463
1753555935254,81.266278
1753555935288,81.146017
1753555935322,81.334052
1753555935355,81.334579
1753555935388,81.563513
1753555935421,81.583402
1753555935460,81.602413
1753555935496,81.618533
1753555935526,81.602048
1753555935560,81.594027
1753555935593,81.63796
1753555935622,81.666997
1753555935653,81.698637
1753555935687,81.734725
1753555935721,81.785962
1753555935755,81.818554
1753555935793,81.881484
1753555935820,81.923893
1753555935855,81.971354
1753555935889,82.006152
1753555935924,82.046778
1753555935956,81.86983
1753555935990,81.902779
1753555936025,81.961647
1753555936058,81.964134
1753555936094,81.578702
1753555936129,81.313798
1753555936154,81.200542
1753555936199,81.180216
1753555936231,81.200262
1753555936257,81.24452
1753555936289,81.490687
1753555936320,81.754543
1753555936354,81.758983
1753555936387,81.737928
1753555936422,81.761125
1753555936453,81.775493
1753555936491,81.593467
1753555936524,81.644438
1753555936553,81.700161
1753555936589,81.744757
1753555936627,81.780754
1753555936661,81.832297
1753555936691,81.866829
1753555936721,81.931536
1753555936757,81.991556
1753555936788,81.800168
1753555936821,81.860618
1753555936855,81.952708
1753555936888,81.990156
1753555936921,81.693227
1753555936955,81.162644
1753555936989,80.918574
1753555937022,81.034824
1753555937054,81.241395
1753555937089,81.413681
1753555937121,81.466292
1753555937154,81.696873
1753555937190,81.687055
1753555937220,81.497497
1753555937252,81.480765
1753555937288,81.461585
1753555937320,81.461943
1753555937354,81.470602
1753555937402,81.723332
1753555937425,81.75951
1753555937457,81.996875
1753555937488,81.826158
1753555937519,81.887167
1753555937554,82.201134
1753555937586,82.011602
1753555937619,82.079258
1753555937658,81.942714
1753555937684,81.980338
1753555937727,82.006667
1753555937752,81.695297
1753555937790,81.381135
1753555937831,81.17228
1753555937868,81.132735
1753555937890,81.320861
1753555937920,81.336623
1753555937954,81.835904
1753555937989,81.84565
1753555938020,82.063099
1753555938054,81.890331
1753555938086,81.855214
1753555938117,81.870012
1753555938151,81.93388
1753555938187,81.949596
1753555938237,82.002422
1753555938250,82.073985
1753555938284,82.133282
1753555938317,82.228094
1753555938350,82.253569
1753555938387,82.321324
1753555938420,82.344
1753555938456,82.343935
1753555938486,82.135352
1753555938521,82.196381
1753555938555,81.904967
1753555938584,81.910891
1753555938618,81.485719
1753555938652,81.405478
1753555938685,81.42219
1753555938718,81.444534
1753555938754,81.483961
1753555938786,81.747967
1753555938819,81.776105
1753555938854,81.790233
1753555938886,81.799009
1753555938918,81.858437
1753555938957,81.865657
1753555938987,81.867219
1753555939018,81.862668
1753555939052,81.864999
1753555939085,81.902376
1753555939118,81.916966
1753555939151,81.944212
1753555939187,81.976797
1753555939222,81.998112
1753555939255,82.029551
1753555939291,82.073314
1753555939321,82.142794
1753555939351,82.12711
1753555939384,81.941328
1753555939419,81.668318
1753555939451,81.520726
1753555939485,81.512373
1753555939524,81.563285
1753555939551,81.844185
1753555939593,82.053418
1753555939621,82.079447
1753555939650,81.847108
1753555939683,81.744113
1753555939718,81.738911
1753555939753,81.925436
1753555939787,81.770819
1753555939825,81.824706
1753555939852,81.889504
1753555939888,81.96125
1753555939920,82.040463
1753555939951,82.0478
1753555939982,82.06739
1753555940017,82.099577
1753555940049,82.125841
1753555940084,82.116928
1753555940119,82.111205
1753555940154,82.145672
1753555940187,82.239292
1753555940226,82.253758
1753555940257,82.06015
1753555940287,81.803723
1753555940319,81.687752
1753555940353,81.695903
1753555940385,81.728761
1753555940420,81.939798
1753555940452,82.240672
1753555940483,82.273973
1753555940518,82.28745
1753555940552,82.047604
1753555940582,82.048483
1753555940618,82.097598
1753555940652,82.147787
1753555940682,82.176017
1753555940716,82.255477
1753555940752,82.320171
1753555940783,82.389234
1753555940818,82.414814
1753555940852,82.421051
1753555940883,82.479007
1753555940918,82.552666
1753555940952,82.572986
1753555940987,82.67632
1753555941018,82.760135
1753555941052,82.412027
1753555941084,82.110561
1753555941117,81.686176
1753555941152,81.64324
1753555941181,81.90037
1753555941214,82.111296
1753555941249,82.189708
1753555941284,82.192664
1753555941317,81.976946
1753555941352,81.946224
1753555941385,81.90235
1753555941415,81.897896
1753555941449,82.11961
1753555941485,82.193035
1753555941517,82.28659
1753555941551,82.410465
1753555941583,82.583643
1753555941616,82.712947
1753555941651,82.864374
1753555941684,83.011888
1753555941714,83.229871
1753555941753,83.405556
1753555941789,83.399846
1753555941817,83.117657
1753555941851,82.797095
1753555941890,82.453304
1753555941915,82.461911
1753555941950,82.283205
1753555941982,82.618806
1753555942018,82.465517
1753555942052,82.48053
1753555942086,82.014323
1753555942117,82.005547
1753555942148,82.006165
1753555942181,82.005495
1753555942218,82.098803
1753555942252,82.191062
1753555942287,82.286187
1753555942317,82.427776
1753555942348,82.520283
1753555942382,82.60223
1753555942418,82.679067
1753555942447,82.499658
1753555942480,82.582126
1753555942516,82.621501
1753555942550,82.417373
1753555942582,81.810904
1753555942618,81.63128
1753555942650,81.568793
1753555942683,81.502295
1753555942718,81.577172
1753555942750,81.828443
1753555942785,82.158022
1753555942816,82.198829
1753555942849,82.18409
1753555942887,82.212495
1753555942918,82.26842
1753555942947,82.022376
1753555942980,82.123686
1753555943014,81.922278
1753555943048,82.207619
1753555943082,82.342326
1753555943116,82.415582
1753555943148,82.491956
1753555943178,82.32648
1753555943211,82.313856
1753555943246,82.346129
1753555943279,82.473584
1753555943317,82.523298
1753555943346,82.569698
1753555943383,82.38887
1753555943416,81.999811
1753555943447,81.819465
1753555943479,81.810227
1753555943512,81.764302
1753555943546,81.772889
1753555943584,82.013841
1753555943617,81.995827
1753555943648,82.278882
1753555943678,82.017044
1753555943716,82.221922
1753555943746,82.245887
1753555943777,82.288277
1753555943812,82.33829
1753555943845,82.419319
1753555943878,82.487555
1753555943910,82.291402
1753555943951,82.383746
1753555943983,82.229162
1753555944012,82.512445
1753555944049,82.355491
1753555944083,82.422952
1753555944115,82.513656
1753555944149,82.592374
1753555944187,82.674633
1753555944216,82.664568
1753555944249,82.103516
1753555944279,81.78022
1753555944316,81.596143
1753555944348,81.813208
1753555944382,81.829673
1753555944416,81.858059
1753555944448,81.893033
1753555944484,81.931276
1753555944515,82.181095
1753555944553,82.442907
1753555944579,82.490837
1753555944614,82.531084
1753555944649,82.60227
1753555944679,82.702042
1753555944713,82.756424
1753555944747,82.606827
1753555944785,82.45277
1753555944814,82.495426
1753555944846,82.289611
1753555944879,82.667517
1753555944914,82.512315
1753555944947,82.608936
1753555944980,82.661463
1753555945020,82.346018
1753555945050,82.323153
1753555945080,81.671261
1753555945115,81.523304
1753555945149,81.509736
1753555945181,81.513923
1753555945212,81.562784
1753555945249,81.920136
1753555945282,81.987943
1753555945314,82.289051
1753555945350,82.037324
1753555945382,82.319989
1753555945409,82.311226
1753555945444,82.3123
1753555945478,82.33452
1753555945514,82.394286
1753555945543,82.440074
1753555945578,82.51389
1753555945610,82.589678
1753555945647,82.363765
1753555945683,82.416246
1753555945713,82.449736
1753555945748,82.513942
1753555945777,82.586111
1753555945814,82.664985
1753555945846,82.745285
1753555945877,82.736359
1753555945910,82.421845
1753555945944,82.011387
1753555945978,81.76311
1753555946013,81.706515
1753555946042,81.934928
1753555946077,81.882916
1753555946115,82.178107
1753555946144,82.193927
1753555946178,82.471318
1753555946214,82.511299
1753555946242,82.477497
1753555946281,82.509606
1753555946314,82.316831
1753555946342,82.589372
1753555946378,82.683553
1753555946414,82.76412
1753555946445,82.547601
1753555946480,82.645076
1753555946511,82.720018
1753555946544,82.740109
1753555946581,82.837655
1753555946613,82.896256
1753555946642,82.949062
1753555946676,83.047923
1753555946709,83.091602
1753555946742,83.118262
1753555946780,82.963066
1753555946814,82.546345
1753555946844,81.850129
1753555946878,81.815396
1753555946913,81.68992
1753555946944,81.650857
1753555946980,81.940807
1753555947013,82.206076
1753555947042,82.492262
1753555947075,82.541156
1753555947113,82.553278
1753555947147,82.54236
1753555947180,82.569502
1753555947214,82.632029
1753555947245,82.676515
1753555947278,82.759829
1753555947314,82.613643
1753555947345,82.675838
1753555947380,82.813475
1753555947414,82.715753
1753555947444,82.792766
1753555947478,82.608311
1753555947514,82.671079
1753555947546,82.748234
1753555947578,82.838886
1753555947615,82.987129
1753555947647,82.912454
1753555947678,83.085586
1753555947710,82.736157
1753555947745,82.385308
1753555947777,81.675102
1753555947814,81.518311
1753555947845,81.873599
1753555947880,81.92664
1753555947913,82.30327
1753555947944,82.403889
1753555947978,82.444
1753555948014,82.405888
1753555948045,82.040664
1753555948077,82.287176
1753555948114,82.265672
1753555948144,82.259559
1753555948178,82.203296
1753555948213,82.131668
1753555948242,82.053509
1753555948271,82.038477
1753555948310,82.107012
1753555948343,82.549007
1753555948380,82.735474
1753555948413,83.040365
1753555948449,83.308446
1753555948480,83.52874
1753555948511,83.450218
1753555948549,83.327001
1753555948580,83.083132
1753555948611,82.531852
1753555948641,82.087077
1753555948682,81.389488
1753555948715,81.630421
1753555948742,81.677784
1753555948778,82.04166
1753555948815,82.129994
1753555948848,82.327313
1753555948881,82.515908
1753555948909,82.635929
1753555948938,82.339481
1753555948975,82.069675
1753555949008,82.11599
1753555949038,82.210665
1753555949071,82.296962
1753555949108,82.022578
1753555949140,82.116322
1753555949177,82.181362
1753555949211,82.256213
1753555949245,82.301643
1753555949276,82.315484
1753555949308,82.391129
1753555949340,82.478773
1753555949375,82.585648
1753555949410,82.673793
1753555949442,82.349449
1753555949471,82.446741
1753555949508,82.073816
1753555949542,81.770936
1753555949573,81.252651
1753555949609,80.859081
1753555949638,81.131043
1753555949675,81.537914
1753555949709,81.925117
1753555949748,82.088067
1753555949780,82.364286
1753555949814,82.497679
1753555949838,82.602895
1753555949876,82.689536
1753555949907,82.75729
1753555949940,82.865097
1753555949973,83.026035
1753555950007,83.360855
1753555950040,83.996452
1753555950069,84.050463
1753555950107,83.622699
1753555950146,83.255809
1753555950174,82.40482
1753555950213,82.464463
1753555950239,82.158849
1753555950283,82.455101
1753555950309,82.256603
1753555950337,82.470596
1753555950372,82.849348
1753555950407,82.33995
1753555950441,82.298765
1753555950472,82.305607
1753555950508,82.099324
1753555950541,81.61975
1753555950570,81.033106
1753555950603,80.751333
1753555950639,80.590876
1753555950673,80.60654
1753555950707,80.835084
1753555950738,81.043601
1753555950771,81.225503
1753555950810,81.107273
1753555950841,80.883515
1753555950873,80.779061
1753555950907,80.698833
1753555950938,80.546768
1753555950981,80.50249
1753555951006,80.555199
1753555951035,80.679952
1753555951068,80.799003
1753555951104,80.976627
1753555951137,81.415172
1753555951174,81.505316
1753555951207,81.426331
1753555951237,81.262586
1753555951271,81.027455
1753555951304,80.901979
1753555951337,80.897044
1753555951374,81.218524
1753555951406,80.791164
1753555951438,80.291545
1753555951471,80.398714
1753555951504,80.278166
1753555951538,80.682413
1753555951574,80.616059
1753555951607,80.601807
1753555951638,80.554587
1753555951673,80.871809
1753555951707,80.810038
1753555951739,80.736177
1753555951769,80.702225
1753555951802,80.712498
1753555951838,80.730688
1753555951872,80.73869
1753555951903,80.7577
1753555951938,80.781991
1753555951972,80.801919
1753555952003,80.812883
1753555952035,80.829973
1753555952071,80.841041
1753555952103,80.859739
1753555952135,80.871972
1753555952172,80.80774
1753555952202,80.466201
1753555952239,80.093139
1753555952271,79.880631
1753555952303,79.823814
1753555952338,80.184207
1753555952372,80.177293
1753555952402,80.207378
1753555952436,80.188751
1753555952471,80.473343
1753555952503,80.430914
1753555952535,80.412698
1753555952572,80.415699
1753555952602,80.423759
1753555952636,80.456136
1753555952671,80.481865
1753555952703,80.51266
1753555952738,80.548057
1753555952772,80.568324
1753555952802,80.600609
1753555952835,80.71841
1753555952872,80.763058
1753555952902,80.842265
1753555952936,80.794068
1753555952971,80.521175
1753555953002,80.227521
1753555953038,80.053614
1753555953070,79.992272
1753555953102,79.999564
1753555953136,80.381513
1753555953170,80.423955
1753555953200,80.451702
1753555953234,80.77772
1753555953271,80.778937
1753555953301,80.76134
1753555953336,80.761398
1753555953370,80.796906
1753555953404,80.822043
1753555953438,80.847095
1753555953468,80.880422
1753555953502,80.903736
1753555953539,80.938261
1753555953568,80.970091
1753555953614,81.004401
1753555953637,81.039805
1753555953667,81.065808
1753555953704,80.943248
1753555953737,80.689848
1753555953768,80.472236
1753555953801,80.375276
1753555953834,80.365972
1753555953871,80.726268
1753555953904,80.800201
1753555953935,81.159773
1753555953978,81.170522
1753555954006,81.483239
1753555954037,81.172469
1753555954070,81.190203
1753555954102,81.207742
1753555954133,81.260301
1753555954166,81.645942
1753555954203,81.683696
1753555954234,81.728332
1753555954280,81.441559
1753555954300,81.448226
1753555954333,81.49139
1753555954378,81.551156
1753555954403,81.599464
1753555954432,81.658839
1753555954466,81.709979
1753555954503,81.66548
1753555954533,81.405895
1753555954567,81.164916
1753555954602,81.091544
1753555954633,81.108288
1753555954667,81.171674
1753555954706,81.209038
1753555954734,81.608572
1753555954768,81.647979
1753555954802,81.954922
1753555954835,81.64072
1753555954877,81.664151
1753555954903,82.004369
1753555954933,82.078764
1753555954967,82.132989
1753555955000,81.847597
1753555955035,81.908007
1753555955068,81.975475
1753555955100,81.983926
1753555955135,81.98446
1753555955168,81.646977
1753555955199,82.022468
1753555955243,81.768651
1753555955269,81.814478
1753555955303,81.653058
1753555955335,81.685597
1753555955374,81.494853
1753555955399,81.461331
1753555955432,81.500244
1753555955466,81.551488
1753555955501,81.955748
1753555955533,82.026869
1753555955569,82.026667
1753555955602,82.028431
1753555955635,82.070847
1753555955668,82.078217
1753555955701,82.093399
1753555955735,82.174298
1753555955769,82.231597
1753555955802,82.261486
1753555955835,82.325328
1753555955868,82.371669
1753555955901,82.409254
1753555955934,82.453434
1753555955967,82.500036
1753555955997,82.532731
1753555956033,82.568441
1753555956067,82.620987
1753555956099,82.696697
1753555956133,82.41665
1753555956166,82.239949
1753555956197,81.892831
1753555956234,81.700408
1753555956268,81.645323
1753555956298,81.648396
1753555956334,82.019727
1753555956368,82.053503
1753555956398,82.110313
1753555956431,82.467204
1753555956465,82.482236
1753555956506,82.483284
1753555956531,82.478161
1753555956565,82.537295
1753555956604,82.580772
1753555956635,82.61432
1753555956668,82.671652
1753555956698,82.713325
1753555956737,82.748989
1753555956767,82.779595
1753555956801,82.796756
1753555956834,82.810175
1753555956867,82.833488
1753555956898,82.898587
1753555956935,82.939804
1753555956968,82.651925
1753555957001,82.726307
1753555957034,82.744067
1753555957066,82.758195
1753555957099,82.736222
1753555957139,82.414085
1753555957166,82.142364
1753555957198,82.043659
1753555957232,82.046354
1753555957263,82.126921
1753555957302,82.137768
1753555957334,82.175327
1753555957368,82.189988
1753555957396,82.217332
1753555957433,82.252013
1753555957464,82.275737
1753555957499,82.298296
1753555957533,82.357567
1753555957563,82.528356
1753555957598,82.624978
1753555957635,82.720402
1753555957661,82.735304
1753555957698,82.742817
1753555957731,82.725766
1753555957763,82.711352
1753555957800,82.718169
1753555957833,82.765311
1753555957863,82.823345
1753555957901,82.852577
1753555957935,82.900572
1753555957969,82.948001
1753555958001,82.524391
1753555958034,82.186687
1753555958062,81.560902
1753555958097,81.818534
1753555958132,81.817603
1753555958164,82.236916
1753555958207,82.314214
1753555958229,82.71688
1753555958262,82.380758
1753555958306,82.707745
1753555958334,82.324045
1753555958366,82.332763
1753555958402,82.353231
1753555958432,82.750083
1753555958463,82.796776
1753555958499,82.805266
1753555958533,82.489645
1753555958570,82.544613
1753555958597,82.563389
1753555958629,82.583194
1753555958665,82.633455
1753555958700,82.702719
1753555958732,82.759074
1753555958765,82.838918
1753555958799,82.847115
1753555958833,82.610447
1753555958866,82.241571
1753555958900,82.040293
1753555958931,81.975937
1753555958964,82.350556
1753555958997,82.39581
1753555959029,82.798124
1753555959068,82.505257
1753555959098,82.527529
1753555959130,82.508877
1753555959162,82.463655
1753555959198,82.489339
1753555959239,82.509365
1753555959264,82.554567
1753555959296,82.605492
1753555959328,82.640929
1753555959361,82.671098
1753555959403,82.703787
1753555959432,82.713943
1753555959465,82.75244
1753555959498,82.480316
1753555959531,82.517738
1753555959565,82.525739
1753555959595,82.567862
1753555959629,82.965788
1753555959665,82.969258
1753555959697,82.711535
1753555959729,81.981777
1753555959764,81.748996
1753555959798,81.715669
1753555959832,81.72604
1753555959865,82.075697
1753555959897,82.127566
1753555959928,82.167286
1753555959964,82.195867
1753555959999,82.192762
1753555960030,82.157742
1753555960064,82.167364
1753555960098,82.194689
1753555960130,82.538259
1753555960163,82.572686
1753555960197,82.623787
1753555960228,82.647107
1753555960261,82.321187
1753555960296,82.357255
1753555960327,82.39747
1753555960366,82.401995
1753555960398,82.423707
1753555960429,82.493584
1753555960464,82.520238
1753555960499,82.524841
1753555960530,82.607784
1753555960567,82.650981
1753555960598,82.428597
1753555960627,82.057513
1753555960663,81.81718
1753555960697,81.733071
1753555960728,82.082331
1753555960763,82.402678
1753555960797,82.461754
1753555960830,82.511943
1753555960860,82.509157
1753555960896,82.436611
1753555960930,82.417301
1753555960960,82.433108
1753555960996,82.438466
1753555961028,82.503213
1753555961060,82.559704
1753555961094,82.591853
1753555961128,82.653474
1753555961163,82.697544
1753555961197,82.40094
1753555961230,82.432802
1753555961267,82.489007
1753555961296,82.470609
1753555961327,82.504085
1753555961362,82.550101
1753555961396,82.612361
1753555961428,82.66322
1753555961464,82.671137
1753555961496,82.404241
1753555961527,82.044278
1753555961563,81.884329
1753555961596,81.871829
1753555961628,82.553669
1753555961663,82.644705
1753555961699,83.092064
1753555961729,82.732589
1753555961764,82.743651
1753555961796,82.70964
1753555961829,82.677895
1753555961864,82.715942
1753555961897,82.759354
1753555961929,82.801997
1753555961961,82.87789
1753555961996,82.941243
1753555962027,82.601124
1753555962062,82.660167
1753555962096,82.721593
1753555962127,82.742648
1753555962163,82.420198
1753555962196,82.493421
1753555962227,82.573493
1753555962264,82.581351
1753555962296,82.956178
1753555962326,83.035039
1753555962362,82.953411
1753555962398,82.318036
1753555962428,81.966419
1753555962463,81.807863
1753555962496,81.733449
1753555962528,82.086296
1753555962563,82.133002
1753555962598,82.228901
1753555962630,82.257378
1753555962663,82.553063
1753555962696,82.541774
1753555962727,82.516455
1753555962763,82.538825
1753555962796,82.57848
1753555962828,82.990091
1753555962863,82.692999
1753555962897,82.747954
1753555962928,82.768957
1753555962964,82.823137
1753555962993,82.87957
1753555963030,82.879648
1753555963063,82.918762
1753555963098,83.015703
1753555963131,83.04987
1753555963164,83.063425
1753555963196,83.134942
1753555963228,83.209318
1753555963263,82.905201
1753555963296,82.930273
1753555963328,82.698019
1753555963363,82.329234
1753555963396,82.131036
1753555963428,82.098842
1753555963459,82.467939
1753555963496,82.532191
1753555963521,82.993131
1753555963556,82.636677
1753555963592,83.013854
1753555963625,82.693514
1753555963663,82.638676
1753555963697,82.593578
1753555963732,82.678474
1753555963757,83.101719
1753555963795,83.130561
1753555963831,83.210503
1753555963861,82.93442
1753555963896,82.934915
1753555963931,82.961634
1753555963960,83.023073
1753555963994,83.055026
1753555964023,82.736671
1753555964054,83.143783
1753555964090,82.786672
1753555964120,83.216063
1753555964153,82.896842
1753555964189,83.294045
1753555964223,82.972597
1753555964256,82.733507
1753555964290,82.380712
1753555964322,82.232215
1753555964355,82.252788
1753555964389,82.318394
1753555964421,82.439847
1753555964457,82.877317
1753555964489,82.912226
1753555964522,82.947897
1753555964556,82.936868
1753555964588,82.887942
1753555964622,82.923326
1753555964665,82.990768
1753555964690,83.044922
1753555964721,83.116081
1753555964755,83.198927
1753555964788,83.222039
1753555964824,83.25717
1753555964857,83.34122
1753555964891,83.036087
1753555964924,83.062032
1753555964954,82.820936
1753555964987,83.169975
1753555965023,82.893554
1753555965051,82.983815
1753555965085,83.05474
1753555965120,82.816639
1753555965152,82.415738
1753555965186,81.905501
1753555965219,81.84731
1753555965255,82.127065
1753555965289,82.91763
1753555965322,82.98069
1753555965353,83.005651
1753555965386,83.03847
1753555965419,83.049095
1753555965455,83.039388
1753555965488,83.041407
1753555965520,83.11183
1753555965555,83.100365
1753555965589,82.820129
1753555965619,82.902721
1753555965663,82.55266
1753555965686,82.955175
1753555965721,82.719126
1753555965754,82.721216
1753555965788,82.737882
1753555965821,82.77494
1753555965854,82.796965
1753555965886,82.871379
1753555965929,82.916979
1753555965955,82.933196
1753555965986,83.049519
1753555966021,82.902154
1753555966050,82.451279
1753555966084,82.215848
1753555966118,82.176225
1753555966152,82.85537
1753555966185,82.904166
1753555966219,83.357287
1753555966254,83.056797
1753555966290,83.055879
1753555966319,83.027442
1753555966355,83.011849
1753555966386,83.0253
1753555966418,83.068399
1753555966454,83.068672
1753555966486,83.155489
1753555966519,83.24258
1753555966555,83.225014
1753555966586,83.277248
1753555966619,83.360653
1753555966655,83.378792
1753555966686,83.38357
1753555966719,83.090222
1753555966756,83.137032
1753555966786,83.137039
1753555966819,83.207104
1753555966855,83.284325
1753555966888,83.294891
1753555966921,83.213563
1753555966954,82.261187
1753555966986,81.962155
1753555967018,81.877851
1753555967054,82.254351
1753555967085,82.585186
1753555967118,83.042123
1753555967163,83.146948
1753555967187,82.766685
1753555967222,82.742681
1753555967254,82.746645
1753555967285,82.704139
1753555967319,82.716496
1753555967354,82.811776
1753555967385,82.854205
1753555967433,82.867545
1753555967455,82.923053
1753555967485,82.951321
1753555967518,82.974075
1753555967553,83.025514
1753555967585,83.025996
1753555967617,83.089812
1753555967653,83.131987
1753555967685,83.136121
1753555967719,83.217638
1753555967754,83.236219
1753555967783,82.87315
1753555967816,82.52488
1753555967851,82.392561
1753555967887,82.433401
1753555967920,82.468122
1753555967951,82.851522
1753555967987,82.926972
1753555968020,82.962402
1753555968050,82.921354
1753555968083,82.874973
1753555968120,82.876086
1753555968150,82.923346
1753555968184,82.962721
1753555968220,82.945462
1753555968251,83.034089
1753555968283,83.102859
1753555968319,83.090847
1753555968350,83.11308
1753555968384,82.826542
1753555968419,82.831268
1753555968450,82.522946
1753555968484,82.891406
1753555968519,82.616072
1753555968549,82.644659
1753555968581,83.035775
1753555968616,82.771353
1753555968650,82.595824
1753555968683,82.237124
1753555968719,81.955039
1753555968750,82.170405
1753555968785,82.543565
1753555968819,82.575655
1753555968850,82.652739
1753555968885,82.385432
1753555968918,82.348401
1753555968950,82.345829
1753555968983,82.389117
1753555969019,82.346428
1753555969046,82.322417
1753555969084,82.432353
1753555969118,82.461286
1753555969152,82.487171
1753555969185,82.525908
1753555969218,82.598676
1753555969253,82.620199
1753555969286,82.652328
1753555969314,82.699881
1753555969348,82.746053
1753555969381,82.779556
1753555969415,82.8141
1753555969452,82.837688
1753555969486,82.887616
1753555969519,82.964648
1753555969551,82.961686
1753555969581,82.810422
1753555969617,82.486943
1753555969652,82.177657
1753555969682,82.097748
1753555969717,82.211994
1753555969751,82.262977
1753555969780,82.301512
1753555969814,82.407672
1753555969848,82.407034
1753555969882,82.339449
1753555969918,82.33038
1753555969951,82.350432
1753555969982,82.376142
1753555970017,82.392776
1753555970051,82.472874
1753555970080,82.519385
1753555970116,82.518714
1753555970150,82.549333
1753555970181,82.632999
1753555970217,82.658559
1753555970251,82.671359
1753555970281,82.732563
1753555970317,82.773762
1753555970351,82.778696
1753555970381,82.855689
1753555970417,82.960312
1753555970451,82.481898
1753555970481,82.152306
1753555970516,81.945664
1753555970546,81.846373
1753555970578,82.196928
1753555970612,82.324117
1753555970646,82.714484
1753555970684,82.427568
1753555970717,82.500856
1753555970748,82.834537
1753555970781,82.411311
1753555970816,82.426865
1753555970858,82.519815
1753555970884,82.546996
1753555970913,82.570121
1753555970949,82.63794
1753555970983,82.70561
1753555971013,82.741151
1753555971051,82.722192
1753555971082,82.764347
1753555971114,82.848085
1753555971151,82.893736
1753555971183,82.842473
1753555971214,82.911757
1753555971250,83.01916
1753555971283,82.995573
1753555971314,82.992682
1753555971349,82.564665
1753555971385,82.181271
1753555971414,81.560166
1753555971449,81.844211
1753555971483,81.918678
1753555971513,82.288628
1753555971550,82.304768
1753555971582,82.354039
1753555971614,82.440302
1753555971649,82.411774
1753555971681,82.34079
1753555971713,82.366148
1753555971751,82.413968
1753555971782,82.460231
1753555971814,82.451429
1753555971849,82.484463
1753555971884,82.559841
1753555971913,82.597829
1753555971948,82.609815
1753555971984,82.643923
1753555972014,82.744308
