time,ppg
1753713993101,83.241655
1753713993135,76.121016
1753713993172,73.444736
1753713993204,71.579919
1753713993239,70.177794
1753713993271,69.251655
1753713993307,67.856868
1753713993327,66.456038
1753713993361,64.993301
1753713993395,64.214122
1753713993439,63.625557
1753713993472,63.205919
1753713993511,62.833873
1753713993531,62.561123
1753713993563,62.438369
1753713993597,62.771515
1753713993623,62.918665
1753713993658,62.691847
1753713993693,62.281766
1753713993728,61.857545
1753713993763,61.493519
1753713993790,61.230906
1753713993826,60.997233
1753713993857,60.607217
1753713993894,59.906907
1753713993950,58.999687
1753713993973,58.21894
1753713994008,58.043223
1753713994039,57.952096
1753713994068,57.585707
1753713994103,58.096941
1753713994142,58.648468
1753713994189,58.84539
1753713994215,59.097735
1753713994244,59.235581
1753713994258,59.319156
1753713994309,59.546664
1753713994352,60.230692
1753713994363,60.828462
1753713994405,61.588949
1753713994422,62.201043
1753713994480,62.669555
1753713994508,63.1809
1753713994534,63.488773
1753713994560,63.800604
1753713994592,64.086264
1753713994622,64.285627
1753713994654,64.484665
1753713994700,64.706176
1753713994721,64.816353
1753713994756,64.955286
1753713994792,65.06142
1753713994824,65.287215
1753713994855,65.408629
1753713994890,65.352307
1753713994923,65.16006
1753713994962,65.033353
1753713994990,64.92819
1753713995024,65.078607
1753713995059,65.310966
1753713995091,65.626899
1753713995126,65.928333
1753713995160,66.04543
1753713995191,66.201753
1753713995224,66.362099
1753713995256,66.552653
1753713995290,66.714809
1753713995323,66.908248
1753713995356,67.115821
1753713995391,67.251466
1753713995435,67.181473
1753713995468,67.005788
1753713995501,67.004707
1753713995527,67.241968
1753713995559,67.476859
1753713995592,67.577081
1753713995628,67.546338
1753713995658,67.427275
1753713995690,67.322613
1753713995722,67.415686
1753713995755,67.631182
1753713995788,67.814895
1753713995823,68.009831
1753713995857,68.205073
1753713995891,68.394006
1753713995927,68.512412
1753713995963,68.418193
1753713995995,68.107208
1753713996029,67.828274
1753713996059,67.777212
1753713996094,67.921647
1753713996125,68.047396
1753713996165,68.22549
1753713996195,68.396194
1753713996227,68.466728
1753713996263,68.270991
1753713996292,67.875767
1753713996326,67.381812
1753713996360,67.04017
1753713996393,66.90192
1753713996428,66.97556
1753713996463,66.965735
1753713996494,66.946048
1753713996524,66.947005
1753713996559,67.110359
1753713996591,67.403883
1753713996625,67.568064
1753713996654,67.671098
1753713996689,67.711007
1753713996723,67.763169
1753713996761,67.820559
1753713996792,67.92371
1753713996824,68.043848
1753713996859,68.142592
1753713996891,68.213406
1753713996928,68.272697
1753713996959,68.362366
1753713996991,68.424651
1753713997027,68.258335
1753713997059,67.935898
1753713997091,67.701932
1753713997128,67.658468
1753713997164,67.709399
1753713997197,67.921328
1753713997224,68.12043
1753713997271,68.335224
1753713997297,68.520095
1753713997337,68.55611
1753713997365,68.600518
1753713997395,68.597283
1753713997428,68.604451
1753713997458,68.62682
1753713997496,68.638884
1753713997527,68.626951
1753713997560,68.600486
1753713997588,68.452744
1753713997624,68.164995
1753713997664,67.963782
1753713997704,67.854218
1753713997727,67.647641
1753713997777,67.21991
1753713997820,66.697081
1753713997849,66.415328
1753713997858,66.52238
1753713997918,66.607706
1753713997933,66.493922
1753713997960,66.489274
1753713998006,66.617804
1753713998060,66.810057
1753713998082,66.964804
1753713998093,67.006634
1753713998121,66.954596
1753713998154,66.888411
1753713998187,66.847968
1753713998216,66.854576
1753713998250,66.939694
1753713998285,67.056498
1753713998318,67.176121
1753713998352,67.279058
1753713998383,67.390745
1753713998419,67.496507
1753713998455,67.526306
1753713998490,67.368277
1753713998516,66.920416
1753713998553,66.553767
1753713998585,66.324924
1753713998624,66.219598
1753713998658,66.215854
1753713998694,66.283954
1753713998723,66.400328
1753713998750,66.527536
1753713998786,66.618852
1753713998831,66.657615
1753713998863,66.658767
1753713998895,66.662608
1753713998930,66.712954
1753713998960,66.78188
1753713998994,66.862141
1753713999025,66.961315
1753713999056,67.059525
1753713999087,67.13532
1753713999128,67.230705
1753713999162,67.34663
1753713999192,67.446617
1753713999229,67.540531
1753713999258,67.631072
1753713999286,67.651567
1753713999331,67.407197
1753713999361,67.011719
1753713999392,66.776756
1753713999427,66.672068
1753713999459,66.650486
1753713999489,66.650369
1753713999525,66.672745
1753713999558,66.756333
1753713999592,66.885605
1753713999624,66.965879
1753713999656,66.991894
1753713999693,66.991354
1753713999726,66.954603
1753713999760,66.876112
1753713999789,66.775838
1753713999831,66.653116
1753713999865,66.553142
1753713999894,66.521944
1753713999929,66.558116
1753713999960,66.661306
1753713999993,66.7338
1753714000026,66.804823
1753714000060,66.867473
1753714000090,66.869055
1753714000126,66.749816
1753714000155,66.298622
1753714000186,65.614607
1753714000220,65.167351
1753714000256,64.854628
1753714000294,64.649796
1753714000321,64.514333
1753714000355,64.368459
1753714000385,64.260132
1753714000429,64.183868
1753714000466,64.185939
1753714000495,64.11668
1753714000521,64.019043
1753714000567,63.944336
1753714000598,63.907597
1753714000631,63.87845
1753714000657,63.886581
1753714000694,63.933365
1753714000721,63.991289
1753714000759,64.06778
1753714000792,64.152071
1753714000827,64.14532
1753714000859,64.187156
1753714000892,64.247742
1753714000929,64.232091
1753714000960,63.921985
1753714000991,63.506344
1753714001023,63.234585
1753714001056,63.353381
1753714001092,63.740011
1753714001134,64.167748
1753714001167,64.516338
1753714001196,64.849114
1753714001229,65.047051
1753714001260,65.131974
1753714001300,65.191603
1753714001339,65.217697
1753714001361,65.244552
1753714001389,65.301421
1753714001419,65.370907
1753714001454,65.443082
1753714001496,65.497874
1753714001525,65.54583
1753714001560,65.589372
1753714001592,65.680805
1753714001633,65.764334
1753714001667,65.812473
1753714001691,65.779426
1753714001729,65.425576
1753714001757,64.978138
1753714001798,64.684015
1753714001826,64.546162
1753714001857,64.547178
1753714001892,64.623728
1753714001934,64.737472
1753714001967,64.914863
1753714001991,65.040157
1753714002025,65.070261
1753714002070,65.074545
1753714002100,65.059935
1753714002123,65.072904
1753714002157,65.13211
1753714002193,65.224565
1753714002225,65.337359
1753714002258,65.476585
1753714002307,65.618051
1753714002325,65.737479
1753714002357,65.846731
1753714002391,65.936028
1753714002423,66.018086
1753714002454,66.101426
1753714002495,66.040417
1753714002523,65.67561
1753714002557,65.281616
1753714002589,64.992363
1753714002623,64.84369
1753714002658,64.794263
1753714002694,64.799973
1753714002728,64.858274
1753714002759,64.938528
1753714002793,64.967884
1753714002825,64.909537
1753714002861,64.808579
1753714002897,64.70966
1753714002928,64.635753
1753714002957,64.618292
1753714002992,64.636853
1753714003026,64.702114
1753714003055,64.800298
1753714003088,64.889251
1753714003122,64.964655
1753714003160,65.048516
1753714003194,65.074766
1753714003227,65.0717
1753714003262,64.715779
1753714003294,64.200978
1753714003330,63.846483
1753714003359,63.664855
1753714003404,63.639373
1753714003433,63.715825
1753714003459,63.843345
1753714003491,64.102188
1753714003525,64.280516
1753714003560,64.37915
1753714003591,64.402789
1753714003627,64.300432
1753714003658,64.258413
1753714003693,64.37637
1753714003723,64.50652
1753714003759,64.553409
1753714003794,64.62919
1753714003826,64.705929
1753714003858,64.761769
1753714003894,64.824706
1753714003926,64.875527
1753714003958,64.762043
1753714003992,64.256564
1753714004026,63.78897
1753714004062,63.501995
1753714004091,63.362209
1753714004127,63.340894
1753714004159,63.383238
1753714004191,63.555407
1753714004229,63.681756
1753714004262,63.753293
1753714004298,63.773989
1753714004329,63.743761
1753714004359,63.687817
1753714004395,63.674646
1753714004427,63.700376
1753714004460,63.750109
1753714004496,63.804445
1753714004526,63.862493
1753714004560,63.940293
1753714004591,63.915175
1753714004625,64.016888
1753714004659,63.999701
1753714004699,63.97248
1753714004725,63.715317
1753714004762,63.233953
1753714004793,62.883294
1753714004828,62.682244
1753714004857,62.999609
1753714004892,63.492477
1753714004925,63.975228
1753714004958,64.390543
1753714004998,64.71507
1753714005029,64.927623
1753714005058,65.083959
1753714005091,65.029095
1753714005123,65.053757
1753714005159,65.155743
1753714005193,65.237072
1753714005227,65.31204
1753714005260,65.385634
1753714005296,65.480322
1753714005330,65.537679
1753714005364,65.55445
1753714005396,65.604919
1753714005432,65.703383
1753714005460,65.739308
1753714005494,65.515283
1753714005529,64.940918
1753714005559,64.516065
1753714005590,64.19366
1753714005626,64.000944
1753714005658,63.929342
1753714005692,63.948034
1753714005727,64.055078
1753714005760,64.155795
1753714005794,64.194083
1753714005827,64.162429
1753714005862,64.104714
1753714005894,64.046114
1753714005925,64.020091
1753714005959,64.044577
1753714005992,64.10948
1753714006030,64.201421
1753714006057,64.306219
1753714006092,64.412796
1753714006125,64.523604
1753714006161,64.626261
1753714006191,64.688475
1753714006227,64.694295
1753714006258,64.390491
1753714006296,63.902923
1753714006325,63.558168
1753714006362,63.355054
1753714006395,63.293837
1753714006431,63.358342
1753714006461,63.453343
1753714006496,63.569262
1753714006526,63.672941
1753714006566,63.713839
1753714006595,63.697876
1753714006626,63.650916
1753714006660,63.614333
1753714006691,63.61324
1753714006721,63.646091
1753714006758,63.713266
1753714006791,63.814875
1753714006823,63.917734
1753714006858,64.00625
1753714006892,64.073965
1753714006926,64.119154
1753714006959,64.091732
1753714006987,63.997363
1753714007025,63.592484
1753714007062,62.940716
1753714007088,62.467972
1753714007123,62.136251
1753714007158,62.181928
1753714007196,62.529138
1753714007226,62.883176
1753714007261,62.983568
1753714007294,62.926621
1753714007326,62.674848
1753714007359,62.474313
1753714007393,62.222065
1753714007427,62.079376
1753714007460,62.024518
1753714007490,62.103262
1753714007529,62.174324
1753714007564,62.250705
1753714007593,62.377724
1753714007624,62.497549
1753714007658,62.605941
1753714007699,62.749738
1753714007733,62.981725
1753714007767,63.164995
1753714007798,63.217462
1753714007827,62.947428
1753714007862,62.540101
1753714007894,62.364657
1753714007931,62.410068
1753714007960,62.65184
1753714007991,62.997174
1753714008025,63.364221
1753714008058,63.871536
1753714008096,64.287665
1753714008130,64.607901
1753714008162,64.84177
1753714008195,64.916568
1753714008229,64.994375
1753714008263,65.095248
1753714008304,65.207215
1753714008328,65.317313
1753714008357,65.442679
1753714008390,65.558734
1753714008427,65.67714
1753714008459,65.805201
1753714008487,65.887564
1753714008522,65.961758
1753714008556,65.978242
1753714008598,65.702999
1753714008635,65.122045
1753714008674,64.776932
1753714008700,64.587061
1753714008739,64.567732
1753714008770,64.661495
1753714008802,64.846887
1753714008836,65.091374
1753714008866,65.283921
1753714008899,65.396604
1753714008938,65.38525
1753714008969,65.337698
1753714008998,65.313986
1753714009031,65.345002
1753714009064,65.429625
1753714009090,65.565303
1753714009123,65.705206
1753714009159,65.814634
1753714009194,65.91593
1753714009224,66.00903
1753714009266,66.062364
1753714009304,65.787687
1753714009333,65.179187
1753714009359,64.780558
1753714009390,64.543506
1753714009427,64.487334
1753714009455,64.531123
1753714009498,64.636033
1753714009530,64.75505
1753714009560,64.861516
1753714009596,64.907226
1753714009623,64.895598
1753714009658,64.871373
1753714009693,64.868671
1753714009729,64.915585
1753714009757,65.003841
1753714009787,65.088835
1753714009822,65.176577
1753714009855,65.284455
1753714009891,65.402867
1753714009925,65.512744
1753714009960,65.607419
1753714009992,65.62516
1753714010022,65.369527
1753714010055,64.671489
1753714010093,64.22004
1753714010123,63.924694
1753714010158,63.795995
1753714010191,63.757804
1753714010221,63.793508
1753714010256,63.891041
1753714010289,64.103777
1753714010323,64.246141
1753714010355,64.319794
1753714010391,64.362281
1753714010427,64.320399
1753714010455,64.377294
1753714010491,64.608279
1753714010523,64.741457
1753714010556,64.902063
1753714010589,65.090085
1753714010622,65.301923
1753714010656,65.510505
1753714010699,65.682179
1753714010729,65.880182
1753714010759,66.061804
1753714010793,66.000234
1753714010826,65.637328
1753714010857,65.385699
1753714010892,65.297893
1753714010925,65.374039
1753714010956,65.534841
1753714010991,65.730526
1753714011027,65.951243
1753714011058,66.157742
1753714011094,66.287769
1753714011122,66.320953
1753714011156,66.295236
1753714011190,66.252534
1753714011224,66.233836
1753714011259,66.264181
1753714011292,66.327678
1753714011329,66.416116
1753714011354,66.524509
1753714011393,66.618689
1753714011425,66.702706
1753714011466,66.776196
1753714011490,66.729269
1753714011526,66.440758
1753714011558,65.477881
1753714011593,64.763338
1753714011623,64.421116
1753714011655,64.367554
1753714011690,64.545049
1753714011725,64.785643
1753714011764,65.0278
1753714011795,65.235028
1753714011824,65.391949
1753714011858,65.337567
1753714011893,65.230587
1753714011928,65.144565
1753714011962,65.137507
1753714011993,65.20657
1753714012026,65.305673
1753714012061,65.399573
1753714012093,65.521781
1753714012123,65.612816
1753714012158,65.698377
1753714012193,65.765428
1753714012228,65.773989
1753714012259,65.463961
1753714012300,64.881542
1753714012330,64.51971
1753714012367,64.309683
1753714012393,64.274019
1753714012429,64.351656
1753714012460,64.480374
1753714012495,64.665278
1753714012528,64.824992
1753714012560,64.927936
1753714012592,64.96317
1753714012623,64.9408
1753714012657,64.946855
1753714012693,65.007292
1753714012726,65.121973
1753714012759,65.274878
1753714012793,65.437913
1753714012827,65.59878
1753714012858,65.761372
1753714012892,65.909192
1753714012928,66.056218
1753714012958,66.177579
1753714012989,66.275881
1753714013023,66.270132
1753714013065,65.817551
1753714013099,65.277124
1753714013146,64.976002
1753714013166,64.858749
1753714013194,64.91179
1753714013227,65.04541
1753714013282,65.217046
1753714013294,65.413974
1753714013324,65.584275
1753714013359,65.7027
1753714013391,65.765018
1753714013426,65.825025
1753714013455,65.893352
1753714013493,66.000299
1753714013525,66.142227
1753714013556,66.29437
1753714013588,66.441611
1753714013624,66.591638
1753714013650,66.706189
1753714013689,66.798176
1753714013729,66.851581
1753714013759,66.906308
1753714013793,66.939127
1753714013824,66.857694
1753714013858,66.294357
1753714013894,65.727954
1753714013932,65.380452
1753714013956,65.232638
1753714013998,65.275627
1753714014029,65.382861
1753714014062,65.521624
1753714014098,65.68393
1753714014123,65.813169
1753714014158,65.860168
1753714014191,65.859459
1753714014229,65.838326
1753714014261,65.835572
1753714014292,65.88011
1753714014328,65.941289
1753714014363,66.025384
1753714014394,66.108282
1753714014427,66.174161
1753714014458,66.235444
1753714014491,66.293557
1753714014526,66.345412
1753714014562,66.386572
1753714014595,66.41176
1753714014626,66.238999
1753714014660,65.603331
1753714014694,65.163719
1753714014732,64.90427
1753714014766,64.854914
1753714014796,64.935631
1753714014828,65.04836
1753714014857,65.193829
1753714014894,65.353244
1753714014927,65.477685
1753714014968,65.522035
1753714015003,65.508265
1753714015027,65.490257
1753714015060,65.504176
1753714015092,65.550928
1753714015122,65.629314
1753714015153,65.724139
1753714015183,65.819524
1753714015220,65.908437
1753714015260,65.991901
1753714015295,66.087631
1753714015325,66.174506
1753714015355,66.252215
1753714015385,66.301363
1753714015421,66.22118
1753714015451,65.640245
1753714015487,65.109988
1753714015521,64.804927
1753714015552,64.703006
1753714015592,64.752713
1753714015631,64.856575
1753714015651,65.000306
1753714015688,65.171466
1753714015719,65.301727
1753714015758,65.365725
1753714015787,65.385061
1753714015822,65.38346
1753714015852,65.405947
1753714015882,65.484333
1753714015919,65.59585
1753714015951,65.713331
1753714015986,65.839849
1753714016022,65.960892
1753714016052,66.067032
1753714016086,66.153211
1753714016119,66.24049
1753714016151,66.314071
1753714016182,66.382854
1753714016222,66.416031
1753714016252,66.196648
1753714016288,65.626612
1753714016329,65.218035
1753714016358,65.03058
1753714016389,65.004753
1753714016422,65.067253
1753714016452,65.169956
1753714016483,65.298771
1753714016519,65.417021
1753714016556,65.498792
1753714016588,65.515882
1753714016620,65.482477
1753714016655,65.449261
1753714016687,65.45443
1753714016718,65.49848
1753714016753,65.587237
1753714016784,65.683051
1753714016823,65.765135
1753714016851,65.844992
1753714016887,65.914492
1753714016921,65.976829
1753714016950,66.024147
1753714016988,66.053659
1753714017018,66.0425
1753714017049,65.67104
1753714017087,65.125626
1753714017123,64.797395
1753714017152,64.63546
1753714017187,64.639249
1753714017219,64.735083
1753714017262,64.879465
1753714017295,65.055131
1753714017321,65.202397
1753714017357,65.282046
1753714017387,65.290471
1753714017427,65.279689
1753714017459,65.287437
1753714017498,65.318895
1753714017533,65.385484
1753714017567,65.475381
1753714017586,65.574847
1753714017617,65.662224
1753714017650,65.738872
1753714017688,65.812395
1753714017720,65.878593
1753714017759,65.934661
1753714017789,65.989264
1753714017819,66.038985
1753714017855,65.982454
1753714017891,65.480954
1753714017930,64.980696
1753714017954,64.673683
1753714017986,64.562953
1753714018017,64.616788
1753714018052,64.740864
1753714018085,64.893684
1753714018123,65.059968
1753714018154,65.19049
1753714018190,65.255301
1753714018228,65.258771
1753714018255,65.246916
1753714018288,65.241336
1753714018323,65.281955
1753714018351,65.348759
1753714018386,65.429599
1753714018418,65.529847
1753714018450,65.643969
1753714018491,65.736945
1753714018525,65.815103
1753714018556,65.889114
1753714018600,65.954179
1753714018654,66.008405
1753714018675,66.029141
1753714018725,65.754627
1753714018747,65.202293
1753714018791,64.852134
1753714018824,64.662374
1753714018849,64.639457
1753714018888,64.733885
1753714018954,64.883554
1753714018980,65.048054
1753714019011,65.200079
1753714019058,65.286551
1753714019111,65.309559
1753714019130,65.275991
1753714019156,65.22963
1753714019174,65.210991
1753714019200,65.220294
1753714019227,65.267834
1753714019284,65.337118
1753714019303,65.420257
1753714019327,65.503356
1753714019362,65.57268
1753714019387,65.630772
1753714019420,65.678019
1753714019449,65.717322
1753714019484,65.707902
1753714019517,65.373759
1753714019541,64.848033
1753714019569,64.501794
1753714019603,64.336858
1753714019636,64.340171
1753714019660,64.454528
1753714019717,64.61421
1753714019738,64.792928
1753714019768,64.949739
1753714019814,65.019681
1753714019842,65.010944
1753714019867,64.991198
1753714019888,64.991465
1753714019918,65.025046
1753714019956,65.090932
1753714019990,65.191434
1753714020025,65.310236
1753714020067,65.417412
1753714020089,65.507992
1753714020125,65.603858
1753714020161,65.67977
1753714020187,65.739184
1753714020226,65.744276
1753714020257,65.416826
1753714020291,64.826229
1753714020331,64.472288
1753714020362,64.294755
1753714020391,64.289904
1753714020426,64.386858
1753714020455,64.536944
1753714020497,64.70994
1753714020522,64.871868
1753714020562,64.962005
1753714020596,64.980085
1753714020626,64.970377
1753714020655,64.975657
1753714020693,65.010573
1753714020718,65.077201
1753714020753,65.172293
1753714020791,65.268928
1753714020822,65.360178
1753714020857,65.447848
1753714020893,65.523936
1753714020928,65.582758
1753714020957,65.635102
1753714020999,65.68145
1753714021028,65.658943
1753714021060,65.265217
1753714021091,64.752648
1753714021124,64.444345
1753714021176,64.298212
1753714021193,64.311994
1753714021221,64.417893
1753714021255,64.546468
1753714021290,64.696079
1753714021321,64.823482
1753714021354,64.898782
1753714021394,64.912135
1753714021426,64.904192
1753714021455,64.897968
1753714021487,64.910611
1753714021514,64.958457
1753714021549,65.02278
1753714021582,65.089408
1753714021615,65.151967
1753714021647,65.221486
1753714021683,65.301988
1753714021715,65.374482
1753714021750,65.428746
1753714021782,65.475094
1753714021819,65.348427
1753714021847,64.816399
1753714021882,64.409593
1753714021919,64.175385
1753714021953,64.11754
1753714021988,64.172944
1753714022017,64.307997
1753714022048,64.484652
1753714022084,64.671593
1753714022119,64.806809
1753714022147,64.859491
1753714022185,64.847746
1753714022217,64.82955
1753714022254,64.842219
1753714022286,64.898183
1753714022318,64.978177
1753714022351,65.069499
1753714022384,65.152228
1753714022418,65.238699
1753714022449,65.340171
1753714022484,65.422294
1753714022516,65.491299
1753714022549,65.464365
1753714022588,65.038522
1753714022623,64.523454
1753714022656,64.184897
1753714022681,64.027279
1753714022721,64.030534
1753714022748,64.13239
1753714022785,64.284442
1753714022823,64.449267
1753714022856,64.587126
1753714022885,64.656534
1753714022918,64.675532
1753714022952,64.679405
1753714022983,64.695721
1753714023022,64.738117
1753714023050,64.817486
1753714023081,64.916152
1753714023118,65.011602
1753714023148,65.100163
1753714023185,65.183556
1753714023224,65.269103
1753714023255,65.350412
1753714023287,65.419313
1753714023319,65.468043
1753714023349,65.42859
1753714023385,64.975605
1753714023422,64.463805
1753714023458,64.156277
1753714023483,64.024128
1753714023516,64.031315
1753714023546,64.132299
1753714023583,64.2884
1753714023620,64.447633
1753714023651,64.577595
1753714023682,64.644607
1753714023721,64.659256
1753714023752,64.65796
1753714023787,64.670642
1753714023821,64.723859
1753714023851,64.797329
1753714023885,64.887916
1753714023930,64.992637
1753714023955,65.106485
1753714023985,65.217664
1753714024019,65.315308
1753714024052,65.405595
1753714024084,65.474678
1753714024116,65.538636
1753714024150,65.550974
1753714024188,65.261616
1753714024221,64.743227
1753714024254,64.405465
1753714024283,64.206375
1753714024321,64.166225
1753714024353,64.243927
1753714024384,64.362776
1753714024421,64.501377
1753714024451,64.631228
1753714024486,64.699796
1753714024519,64.707329
1753714024559,64.695245
1753714024594,64.693175
1753714024624,64.722427
1753714024653,64.784992
1753714024685,64.877929
1753714024724,64.97541
1753714024759,65.073054
1753714024792,65.169409
1753714024817,65.266063
1753714024855,65.340829
1753714024888,65.414215
1753714024921,65.449951
1753714024952,65.264507
1753714024989,64.737537
1753714025018,64.380133
1753714025054,64.190503
1753714025083,64.175294
1753714025119,64.251948
1753714025152,64.391838
1753714025184,64.55669
1753714025214,64.711671
1753714025257,64.808104
1753714025282,64.833371
1753714025321,64.810787
1753714025355,64.79382
1753714025391,64.802408
1753714025419,64.855168
1753714025456,64.916464
1753714025487,64.991432
1753714025520,65.075652
1753714025550,65.163094
1753714025595,65.240047
1753714025619,65.317515
1753714025651,65.38538
1753714025684,65.435055
1753714025717,65.33064
1753714025749,64.788189
1753714025785,64.386806
1753714025822,64.133399
1753714025856,64.063588
1753714025884,64.118901
1753714025918,64.220138
1753714025949,64.360054
1753714025987,64.521514
1753714026017,64.636586
1753714026049,64.69186
1753714026087,64.719595
1753714026123,64.728279
1753714026155,64.753664
1753714026182,64.822518
1753714026217,64.906979
1753714026250,64.988997
1753714026285,65.094369
1753714026317,65.180144
1753714026351,65.258993
1753714026386,65.322886
1753714026419,65.384736
1753714026458,65.451767
1753714026493,65.504482
1753714026530,65.356474
1753714026561,64.844146
1753714026590,64.488343
1753714026620,64.292274
1753714026655,64.252664
1753714026687,64.335191
1753714026717,64.483922
1753714026752,64.656541
1753714026783,64.80052
1753714026816,64.887428
1753714026850,64.906139
1753714026886,64.878626
1753714026917,64.851698
1753714026950,64.854368
1753714026985,64.879797
1753714027016,64.926868
1753714027050,64.996491
1753714027087,65.064395
1753714027119,65.128295
1753714027152,65.191805
1753714027186,65.244995
1753714027217,65.290139
1753714027251,65.318277
1753714027284,65.196896
1753714027325,64.68462
1753714027352,64.293186
1753714027385,64.059753
1753714027418,63.996641
1753714027450,64.061355
1753714027489,64.192469
1753714027518,64.369553
1753714027550,64.542797
1753714027585,64.662882
1753714027621,64.71994
1753714027651,64.730389
1753714027685,64.72854
1753714027719,64.75908
1753714027752,64.81091
1753714027787,64.870598
1753714027818,64.955182
1753714027853,65.038535
1753714027888,65.104311
1753714027920,65.162149
1753714027952,65.213647
1753714027985,65.259605
1753714028018,65.277782
1753714028052,65.06487
1753714028086,64.518141
1753714028119,64.147716
1753714028151,63.93692
1753714028187,63.873339
1753714028218,63.905507
1753714028253,63.997865
1753714028287,64.118692
1753714028319,64.241076
1753714028353,64.307235
1753714028386,64.318999
1753714028420,64.286057
1753714028450,64.225054
1753714028486,64.155567
1753714028518,64.108054
1753714028558,64.045261
1753714028588,63.956399
1753714028621,63.877799
1753714028658,63.827245
1753714028695,63.781848
1753714028721,63.735311
1753714028754,63.70492
1753714028788,63.87276
1753714028819,64.076648
1753714028854,63.969765
1753714028887,63.588897
1753714028927,63.321083
1753714028957,63.27049
1753714028990,63.471969
1753714029026,63.810259
1753714029054,64.186258
1753714029087,64.59835
1753714029121,64.825331
1753714029154,64.918899
1753714029188,64.850494
1753714029219,64.706932
1753714029252,64.606736
1753714029282,64.572445
1753714029315,64.589216
1753714029349,64.631762
1753714029385,64.657947
1753714029416,64.68423
1753714029449,64.721235
1753714029486,64.739158
1753714029525,64.752694
1753714029557,64.730532
1753714029590,64.667576
1753714029622,64.407275
1753714029651,63.323055
1753714029683,62.417952
1753714029718,61.85578
1753714029748,61.418147
1753714029785,61.683208
1753714029815,62.21883
1753714029846,62.724197
1753714029887,62.924811
1753714029927,63.456858
1753714029958,63.420979
1753714029993,63.3679
1753714030021,63.285503
1753714030055,63.239735
1753714030092,63.428297
1753714030121,63.308863
1753714030152,63.372854
1753714030182,63.627732
1753714030216,63.768833
1753714030249,63.772935
1753714030282,63.738957
1753714030320,63.74242
1753714030354,63.749751
1753714030382,63.508285
1753714030417,62.626619
1753714030447,62.00248
1753714030484,61.733201
1753714030515,61.489254
1753714030551,61.651957
1753714030584,61.718039
1753714030618,61.764074
1753714030648,61.933769
1753714030687,62.214129
1753714030719,62.187644
1753714030758,62.120925
1753714030791,62.146277
1753714030819,62.196193
1753714030855,62.302984
1753714030888,62.445061
1753714030917,62.752778
1753714030950,62.845552
1753714030982,63.014902
1753714031020,63.113347
1753714031051,63.40706
1753714031082,63.534164
1753714031115,63.669731
1753714031152,63.703247
1753714031183,63.067194
1753714031215,62.511755
1753714031247,62.204109
1753714031281,61.936061
1753714031320,61.953359
1753714031350,62.037442
1753714031384,62.092182
1753714031416,62.238276
1753714031447,62.223296
1753714031488,62.323811
1753714031517,62.12071
1753714031551,62.020495
1753714031587,62.041569
1753714031616,62.179812
1753714031652,62.170919
1753714031681,62.178295
1753714031718,62.14629
1753714031749,62.045235
1753714031784,61.864648
1753714031816,61.95026
1753714031851,61.930175
1753714031898,61.785324
1753714031925,61.672628
1753714031960,61.333153
1753714031994,60.765038
1753714032022,60.488004
1753714032051,60.393883
1753714032081,60.171329
1753714032117,59.902773
1753714032153,59.751001
1753714032185,59.720454
1753714032217,59.750461
1753714032256,59.775435
1753714032289,59.699503
1753714032327,59.512829
1753714032356,59.484131
1753714032389,59.476344
1753714032422,59.456891
1753714032451,59.710018
1753714032484,60.365582
1753714032521,61.26773
1753714032561,61.920156
1753714032593,62.678989
1753714032627,63.727928
1753714032652,64.342776
1753714032683,64.308986
1753714032715,63.6238
1753714032759,62.98763
1753714032794,62.819973
1753714032828,62.783436
1753714032862,63.368583
1753714032891,63.750552
1753714032930,64.162755
1753714032964,64.817043
1753714033000,65.203934
1753714033032,65.661586
1753714033063,65.848749
1753714033098,65.809009
1753714033125,65.862597
1753714033160,66.015768
1753714033192,66.234741
1753714033225,66.223498
1753714033259,66.199585
1753714033299,66.194982
1753714033327,66.277645
1753714033360,66.384892
1753714033390,66.21049
1753714033421,65.804283
1753714033455,64.594392
1753714033498,63.480954
1753714033530,62.996536
1753714033564,62.661606
1753714033594,62.796483
1753714033634,62.971686
1753714033659,63.246401
1753714033692,63.784595
1753714033724,63.920605
1753714033759,64.120443
1753714033800,64.040235
1753714033827,64.018177
1753714033854,64.055853
1753714033893,64.157351
1753714033924,64.251714
1753714033954,64.310803
1753714033989,64.299917
1753714034024,64.177859
1753714034056,63.980124
1753714034091,63.797141
1753714034132,63.663735
1753714034162,63.605707
1753714034189,63.53096
1753714034222,63.33202
1753714034257,62.710552
1753714034294,62.362424
1753714034328,61.930742
1753714034355,61.522158
1753714034392,61.199826
1753714034423,60.811718
1753714034458,60.244715
1753714034498,59.992428
1753714034539,59.944772
1753714034566,60.141752
1753714034596,60.501768
1753714034631,60.804094
1753714034665,60.795786
1753714034696,60.522041
1753714034729,60.259403
1753714034755,60.192456
1753714034793,60.603858
1753714034824,60.620414
1753714034860,60.502484
1753714034894,60.558174
1753714034925,60.450966
1753714034958,60.160906
1753714034989,59.861978
1753714035030,59.39344
1753714035068,59.026465
1753714035102,59.140255
1753714035127,59.651183
1753714035158,60.120873
1753714035187,60.417158
1753714035216,60.546657
1753714035249,60.661756
1753714035290,60.587074
1753714035322,60.30743
1753714035358,60.091771
1753714035386,60.036524
1753714035421,60.019284
1753714035454,59.943255
1753714035490,59.924531
1753714035522,59.824621
1753714035563,59.796613
1753714035593,59.636313
1753714035631,59.520765
1753714035665,59.175353
1753714035700,59.048399
1753714035726,58.102891
1753714035758,57.306239
1753714035791,57.002663
1753714035827,56.944173
1753714035856,57.243914
1753714035891,57.593279
1753714035922,57.984088
1753714035954,58.298837
1753714035988,58.552523
1753714036022,58.711782
1753714036066,58.718553
1753714036100,58.780487
1753714036133,58.841568
1753714036172,58.982943
1753714036195,59.178829
1753714036230,59.39096
1753714036256,59.586006
1753714036289,59.738957
1753714036321,59.914374
1753714036355,59.972265
1753714036389,60.014544
1753714036426,60.128074
1753714036455,60.329859
1753714036491,60.400452
1753714036527,60.18519
1753714036559,59.69311
1753714036592,59.253322
1753714036622,59.006934
1753714036658,58.917291
1753714036694,58.930234
1753714036722,58.905084
1753714036760,58.896575
1753714036794,59.041146
1753714036826,59.191687
1753714036857,59.254696
1753714036895,59.18741
1753714036926,59.259989
1753714036960,59.395673
1753714036993,59.53223
1753714037025,59.671912
1753714037057,59.963405
1753714037092,60.052963
1753714037130,60.002962
1753714037159,59.900553
1753714037192,59.906152
1753714037224,59.778019
1753714037256,59.341487
1753714037294,58.6463
1753714037325,57.72132
1753714037357,56.246571
1753714037391,55.274507
1753714037423,54.958014
1753714037461,54.872375
1753714037491,54.869622
1753714037526,54.969245
1753714037556,54.955748
1753714037590,55.018535
1753714037622,54.925201
1753714037659,54.791984
1753714037692,54.618253
1753714037728,54.442822
1753714037758,54.263882
1753714037790,54.250216
1753714037825,54.166095
1753714037858,54.198979
1753714037887,54.336304
1753714037928,54.646645
1753714037960,54.971393
1753714037994,55.659562
1753714038025,56.020417
1753714038057,57.15961
1753714038090,57.651769
1753714038127,57.90332
1753714038162,58.050065
1753714038192,57.589574
1753714038224,57.211544
1753714038256,57.097605
1753714038295,57.153159
1753714038328,57.367639
1753714038358,57.757798
1753714038391,58.245431
1753714038423,58.802596
1753714038457,59.12726
1753714038496,59.497034
1753714038535,59.651938
1753714038561,59.441357
1753714038593,58.999128
1753714038625,58.538877
1753714038658,58.205229
1753714038697,57.996602
1753714038725,57.921295
1753714038758,57.932786
1753714038794,57.983984
1753714038826,58.139395
1753714038859,58.310634
1753714038893,58.449892
1753714038929,58.451305
1753714038958,58.404801
1753714038989,58.207358
1753714039023,57.775129
1753714039055,57.35286
1753714039085,57.119382
1753714039117,57.063099
1753714039155,57.027311
1753714039191,57.047546
1753714039225,57.150541
1753714039259,57.362431
1753714039294,57.850507
1753714039328,58.321259
1753714039361,58.726313
1753714039393,59.149233
1753714039427,59.683468
1753714039466,60.384286
1753714039495,61.082963
1753714039530,61.878612
1753714039561,62.479508
1753714039595,62.958528
1753714039630,63.26993
1753714039658,63.536905
1753714039694,63.782941
1753714039721,63.789836
1753714039757,63.654034
1753714039793,62.817245
1753714039823,62.142501
1753714039860,61.814172
1753714039893,61.70535
1753714039927,61.979909
1753714039965,62.229331
1753714039989,62.479866
1753714040019,62.730871
1753714040049,62.86121
1753714040081,62.801392
1753714040113,62.66449
1753714040150,62.565785
1753714040181,62.557608
1753714040217,62.583793
1753714040250,62.644125
1753714040282,62.718983
1753714040318,62.816197
1753714040352,62.880898
1753714040386,62.929518
1753714040423,63.006191
1753714040456,63.087741
1753714040488,62.991888
1753714040520,62.390777
1753714040551,61.639431
1753714040587,61.090411
1753714040621,60.873528
1753714040654,60.727876
1753714040690,60.828462
1753714040728,60.79093
1753714040758,60.87373
1753714040792,61.067194
1753714040824,61.10573
1753714040858,60.977357
1753714040895,60.935273
1753714040932,60.89634
1753714040959,60.920664
1753714040997,61.074844
1753714041027,61.155893
1753714041060,61.168693
1753714041099,61.280581
1753714041126,61.497353
1753714041158,61.611026
1753714041190,61.769543
1753714041230,61.873202
1753714041258,61.870188
1753714041291,61.435465
1753714041325,60.677407
1753714041362,60.145424
1753714041398,59.995469
1753714041431,60.052455
1753714041463,60.781021
1753714041503,61.357301
1753714041526,61.727355
1753714041563,61.932102
1753714041602,62.27215
1753714041636,62.177071
1753714041668,61.979739
1753714041702,61.871562
1753714041735,61.936796
1753714041764,62.081172
1753714041801,62.156935
1753714041827,62.146674
1753714041859,62.260588
1753714041894,62.251766
1753714041926,62.285568
1753714041957,62.420608
1753714041991,62.468082
1753714042023,62.420263
1753714042061,62.225451
1753714042101,61.518428
1753714042133,61.015827
1753714042160,60.731763
1753714042189,60.629106
1753714042226,60.727544
1753714042257,60.747791
1753714042293,60.954121
1753714042333,61.040078
1753714042365,61.281024
1753714042390,61.188107
1753714042423,61.139617
1753714042457,61.079525
1753714042491,61.066706
1753714042527,61.072748
1753714042557,61.109656
1753714042591,61.17073
1753714042624,61.232345
1753714042657,61.281766
1753714042691,61.254585
1753714042727,61.520856
1753714042759,61.612608
1753714042793,61.583819
1753714042825,61.404352
1753714042855,60.903333
1753714042893,60.334175
1753714042926,60.013366
1753714042956,59.840689
1753714042987,60.299468
1753714043027,60.681749
1753714043055,61.209428
1753714043087,61.456689
1753714043133,61.648116
1753714043164,61.927955
1753714043204,61.807753
1753714043228,61.664288
1753714043259,61.548975
1753714043292,61.526826
1753714043323,61.339605
1753714043360,61.412151
1753714043385,61.653774
1753714043420,61.784269
1753714043453,61.766515
1753714043493,61.746619
1753714043526,62.014212
1753714043556,62.135457
1753714043590,62.163328
1753714043622,62.117579
1753714043657,61.668891
1753714043696,61.066446
1753714043730,60.53027
1753714043765,60.546182
1753714043792,60.565368
1753714043828,60.583305
1753714043858,60.757798
1753714043889,60.906536
1753714043921,60.889446
1753714043952,61.102852
1753714043989,61.038288
1753714044022,61.000091
1753714044062,60.988125
1753714044090,60.944231
1753714044127,61.022891
1753714044157,61.035352
1753714044189,61.050606
1753714044225,61.071745
1753714044257,61.138575
1753714044301,61.205255
1753714044334,61.250509
1753714044359,61.178015
1753714044391,61.17685
1753714044426,61.144558
1753714044457,60.579047
1753714044492,59.76481
1753714044530,59.403974
1753714044569,59.378785
1753714044590,59.499951
1753714044625,59.925338
1753714044657,60.253218
1753714044693,60.351871
1753714044726,60.361767
1753714044762,60.293986
1753714044792,60.23146
1753714044824,60.172807
1753714044856,60.13019
1753714044895,60.211779
1753714044925,60.300874
1753714044958,60.380074
1753714044987,60.546787
1753714045021,60.520505
1753714045056,60.450211
1753714045090,60.258608
1753714045120,60.11155
1753714045154,59.951881
1753714045186,59.624197
1753714045221,58.57641
1753714045249,57.826776
1753714045287,57.494958
1753714045328,57.283999
1753714045355,57.446455
1753714045387,58.041563
1753714045422,58.605063
1753714045453,59.082494
1753714045486,59.47277
1753714045519,59.551371
1753714045555,59.683559
1753714045592,59.704106
1753714045620,59.547855
1753714045654,59.674028
1753714045686,59.715428
1753714045720,59.712427
1753714045761,59.644601
1753714045791,59.723266
1753714045825,59.913437
1753714045857,60.318726
1753714045891,60.68479
1753714045922,60.879869
1753714045956,61.024486
1753714045989,60.978359
1753714046029,60.702954
1753714046056,60.154064
1753714046095,59.73617
1753714046125,59.561755
1753714046158,59.388473
1753714046194,59.209721
1753714046225,59.033776
1753714046256,58.949062
1753714046291,58.946549
1753714046329,59.023796
1753714046356,59.255256
1753714046394,59.468401
1753714046435,59.798723
1753714046467,60.287573
1753714046496,60.765493
1753714046526,61.260262
1753714046554,61.710649
1753714046590,61.759562
1753714046619,61.657224
1753714046648,61.531247
1753714046683,61.468981
1753714046719,61.108764
1753714046758,60.617882
1753714046790,59.814745
1753714046826,59.194474
1753714046859,58.567373
1753714046895,58.271844
1753714046926,57.986074
1753714046957,57.583871
1753714046993,57.598552
1753714047027,57.601677
1753714047056,57.570388
1753714047097,57.556963
1753714047133,57.419827
1753714047160,57.174122
1753714047199,56.899537
1753714047229,56.870214
1753714047255,56.728807
1753714047292,56.683976
1753714047330,56.867929
1753714047360,56.731645
1753714047393,56.748787
1753714047429,56.780663
1753714047456,56.787095
1753714047497,56.753898
1753714047526,56.689555
1753714047562,56.631781
1753714047600,56.179969
1753714047624,55.648344
1753714047654,55.325575
1753714047685,55.297958
1753714047717,55.607523
1753714047755,56.460185
1753714047789,56.955026
1753714047822,57.356441
1753714047850,57.715916
1753714047885,57.839817
1753714047924,58.013477
1753714047958,57.949922
1753714047992,57.896347
1753714048030,57.801776
1753714048065,57.766476
1753714048092,57.723319
1753714048123,57.778723
1753714048155,57.674542
1753714048185,57.612348
1753714048222,57.669275
1753714048259,57.673357
1753714048296,57.630343
1753714048330,57.559112
1753714048354,57.470765
1753714048385,57.200255
1753714048418,56.77231
1753714048455,56.487366
1753714048491,56.285965
1753714048524,56.262638
1753714048558,56.304976
1753714048592,56.23243
1753714048625,56.16103
1753714048656,56.194819
1753714048687,56.066609
1753714048726,56.018516
1753714048760,55.986868
1753714048801,56.023405
1753714048831,56.066719
1753714048859,56.105287
1753714048894,56.153224
1753714048927,56.243283
1753714048960,56.343062
1753714048994,56.447021
1753714049024,56.533884
1753714049059,56.662817
1753714049093,56.677042
1753714049126,56.793312
1753714049157,56.87276
1753714049190,56.610531
1753714049223,56.182456
1753714049254,55.866679
1753714049294,55.729582
1753714049329,55.730721
1753714049363,55.759146
1753714049393,55.784009
1753714049427,55.798664
1753714049459,55.773586
1753714049489,55.873723
1753714049531,55.861659
1753714049561,55.754784
1753714049593,55.82703
1753714049626,55.839166
1753714049658,55.87009
1753714049692,55.827297
1753714049725,55.875533
1753714049756,55.869648
1753714049789,56.033496
1753714049822,56.145938
1753714049857,56.184161
1753714049890,56.343524
1753714049923,56.229468
1753714049959,55.939531
1753714049988,55.674991
1753714050024,55.690245
1753714050054,55.618415
1753714050091,55.585173
1753714050124,55.71117
1753714050155,55.863697
1753714050190,55.884843
1753714050221,56.044929
1753714050257,56.162234
1753714050288,56.322261
1753714050326,56.422073
1753714050365,56.500407
1753714050396,56.572211
1753714050423,56.701014
1753714050457,56.758859
1753714050493,56.991647
1753714050522,57.08573
1753714050558,57.220216
1753714050594,57.364924
1753714050625,57.491728
1753714050654,57.613064
1753714050693,57.433981
1753714050725,57.164864
1753714050758,56.988288
1753714050790,56.730018
1753714050825,56.710441
1753714050855,56.692218
1753714050899,56.738599
1753714050934,56.897441
1753714050961,56.900807
1753714050991,56.981647
1753714051028,56.954459
1753714051063,56.973437
1753714051099,56.936302
1753714051129,57.053659
1753714051164,57.065918
1753714051196,57.065482
1753714051227,57.137195
1753714051256,57.131798
1753714051290,57.210607
1753714051323,57.300829
1753714051356,57.322652
1753714051392,57.369208
1753714051423,57.432255
1753714051454,57.376233
1753714051494,57.074616
1753714051532,56.735213
1753714051565,56.449384
1753714051600,56.311272
1753714051631,56.434065
1753714051657,56.359462
1753714051694,56.456898
1753714051728,56.463395
1753714051758,56.451761
1753714051789,56.495101
1753714051825,56.480693
1753714051855,56.45667
1753714051893,56.456806
1753714051920,56.468577
1753714051955,56.511091
1753714051995,56.587764
1753714052028,56.679028
1753714052055,56.78703
1753714052092,56.907545
1753714052123,57.013151
1753714052159,57.064642
1753714052191,57.164077
1753714052228,57.20784
1753714052256,56.897428
1753714052297,56.710265
1753714052321,56.543044
1753714052359,56.455218
1753714052395,56.504281
1753714052431,56.641423
1753714052467,56.693833
1753714052504,56.745011
1753714052530,56.843007
1753714052555,56.894133
1753714052594,56.89802
1753714052620,56.919876
1753714052658,56.94929
1753714052704,57.015039
1753714052741,57.118686
1753714052772,57.221753
1753714052798,57.363765
1753714052825,57.433505
1753714052859,57.668383
1753714052889,57.732309
1753714052921,57.83315
1753714052953,57.844673
1753714052988,57.795559
1753714053023,57.548812
1753714053053,57.23771
1753714053087,57.127631
1753714053121,57.039532
1753714053153,57.066036
1753714053187,57.152625
1753714053223,57.402991
1753714053251,57.581599
1753714053283,57.627771
1753714053324,57.782193
1753714053356,57.798814
1753714053388,57.79662
1753714053422,57.803898
1753714053454,57.849478
1753714053490,57.939186
1753714053527,58.064629
1753714053561,58.125847
1753714053589,58.261812
1753714053648,58.316115
1753714053670,58.486644
1753714053712,58.614053
1753714053734,58.765161
1753714053770,58.827147
1753714053798,58.808898
1753714053830,58.614418
1753714053860,58.180906
1753714053894,58.005404
1753714053925,57.974134
1753714053962,57.988867
1753714053987,58.073757
1753714054022,58.226434
1753714054053,58.490817
1753714054097,58.573005
1753714054120,58.600479
1753714054158,58.672993
1753714054192,58.738267
1753714054229,58.790825
1753714054275,58.84869
1753714054298,58.953431
1753714054340,59.124024
1753714054374,59.309833
1753714054405,59.492087
1753714054432,59.674112
1753714054460,59.944733
1753714054493,60.31215
1753714054524,60.621319
1753714054552,61.008887
1753714054591,61.080723
1753714054624,61.040612
1753714054655,60.760995
1753714054690,60.702895
1753714054721,60.819654
1753714054756,61.074037
1753714054794,61.339084
1753714054824,61.554613
1753714054858,61.799172
1753714054893,62.088275
1753714054924,62.308674
1753714054956,62.286284
1753714054991,62.678904
1753714055032,63.005645
1753714055056,63.38165
1753714055089,63.659249
1753714055126,63.892447
1753714055159,64.06571
1753714055194,64.044108
1753714055226,63.881607
1753714055258,63.755343
1753714055291,63.614125
1753714055327,63.460888
1753714055359,63.089519
1753714055393,61.878241
1753714055426,60.794146
1753714055458,60.294995
1753714055487,60.399951
1753714055524,60.9258
1753714055558,61.432659
1753714055587,61.91722
1753714055624,62.176687
1753714055657,62.730207
1753714055691,62.525713
1753714055724,62.578415
1753714055759,62.260789
1753714055790,62.091615
1753714055825,61.934765
1753714055859,61.980006
1753714055891,62.085671
1753714055925,62.449371
1753714055955,62.641013
1753714055990,62.508454
1753714056026,62.710649
1753714056060,62.766554
1753714056092,62.985508
1753714056126,63.072116
1753714056159,62.977871
1753714056192,62.204526
1753714056229,61.26648
1753714056256,60.738722
1753714056292,60.638546
1753714056324,60.690955
1753714056359,60.66436
1753714056392,60.770916
1753714056424,60.840871
1753714056457,61.062194
1753714056494,61.034089
1753714056523,61.198419
1753714056558,61.048164
1753714056592,61.134571
1753714056626,61.003301
1753714056660,61.089792
1753714056691,61.238686
1753714056726,61.57889
1753714056757,61.567328
1753714056793,61.727928
1753714056825,61.954277
1753714056857,61.992708
1753714056895,62.176134
1753714056925,62.154871
1753714056960,62.150047
1753714056990,61.440452
1753714057022,60.55917
1753714057054,60.172176
1753714057090,59.894661
1753714057128,59.983138
1753714057159,60.597374
1753714057194,61.081583
1753714057226,61.464456
1753714057261,61.91455
1753714057297,61.836959
1753714057320,61.855175
1753714057355,61.719477
1753714057390,61.638858
1753714057420,61.755187
1753714057455,61.700506
1753714057492,61.987975
1753714057526,62.05739
1753714057560,62.150632
1753714057592,62.380321
1753714057622,62.362366
1753714057653,62.167202
1753714057686,62.333375
1753714057720,62.104083
1753714057760,60.959088
1753714057794,60.323947
1753714057827,60.184344
1753714057859,59.959889
1753714057891,60.117227
1753714057924,60.754907
1753714057958,61.187443
1753714057995,61.468369
1753714058028,61.618233
1753714058060,61.849934
1753714058093,61.642732
1753714058125,61.557172
1753714058155,61.625779
1753714058191,61.696997
1753714058224,61.780174
1753714058257,61.81604
1753714058294,61.971054
1753714058334,62.15614
1753714058359,62.11519
1753714058393,62.426904
1753714058428,62.286037
1753714058460,62.241323
1753714058495,62.328322
1753714058530,61.898176
1753714058566,61.088041
1753714058594,60.428557
1753714058625,60.078184
1753714058654,60.028138
1753714058690,60.031537
1753714058724,60.063822
1753714058755,60.186284
1753714058786,60.538246
1753714058825,60.582784
1753714058861,60.5371
1753714058890,60.676593
1753714058923,60.650694
1753714058954,60.557764
1753714058993,60.643351
1753714059023,60.777902
1753714059057,61.090652
1753714059092,61.188725
1753714059124,61.431832
1753714059153,61.549561
1753714059193,61.563838
1753714059229,61.822759
1753714059266,61.800591
1753714059298,61.561475
1753714059327,60.878176
1753714059363,60.354983
1753714059396,60.156485
1753714059422,59.913105
1753714059457,60.148653
1753714059495,60.710923
1753714059535,61.165672
1753714059563,61.453297
1753714059597,61.660584
1753714059622,61.749308
1753714059654,61.658077
1753714059699,61.549541
1753714059731,61.511657
1753714059770,61.552556
1753714059798,61.784289
1753714059828,61.849205
1753714059854,62.010632
1753714059892,62.082598
1753714059923,62.241505
1753714059960,62.402581
1753714059996,62.405471
1753714060031,62.246239
1753714060056,61.937578
1753714060093,61.10237
1753714060121,60.639425
1753714060159,60.478382
1753714060199,60.425302
1753714060229,60.520928
1753714060263,60.633754
1753714060296,60.832987
1753714060332,61.076602
1753714060355,61.085775
1753714060389,60.969277
1753714060422,60.945859
1753714060456,60.951211
1753714060489,61.106791
1753714060531,61.208595
1753714060567,61.270777
1753714060599,61.643526
1753714060629,61.74242
1753714060656,62.029388
1753714060687,62.145945
1753714060725,62.212332
1753714060766,62.406448
1753714060803,61.448128
1753714060834,60.91388
1753714060870,60.588194
1753714060889,60.454736
1753714060926,60.40163
1753714060955,60.427132
1753714060988,60.498818
1753714061023,60.562263
1753714061056,60.701411
1753714061091,60.849745
1753714061122,60.862623
1753714061153,60.856529
1753714061191,60.86828
1753714061227,60.94985
1753714061255,61.058282
1753714061297,61.201036
1753714061326,61.330171
1753714061361,61.661358
1753714061390,61.673194
1753714061422,62.010215
1753714061457,62.081745
1753714061491,62.150834
1753714061524,62.41913
1753714061556,62.079896
1753714061592,61.225197
1753714061624,60.873639
1753714061652,60.413343
1753714061697,60.251955
1753714061723,60.33064
1753714061755,60.358401
1753714061791,60.464345
1753714061828,60.605928
1753714061859,60.736756
1753714061892,60.857545
1753714061925,60.76979
1753714061956,60.651528
1753714061992,60.770252
1753714062022,60.809367
1753714062056,60.891217
1753714062092,61.036341
1753714062124,61.098126
1753714062156,61.291656
1753714062191,61.525811
1753714062225,61.582009
1753714062257,61.63962
1753714062291,61.802245
1753714062323,61.470446
1753714062356,60.782557
1753714062392,60.410732
1753714062425,60.063822
1753714062457,60.066465
1753714062491,60.019017
1753714062519,60.098562
1753714062558,60.236518
1753714062592,60.567504
1753714062626,60.667407
1753714062659,60.745955
1753714062694,60.634119
1753714062727,60.595056
1753714062755,60.610811
1753714062791,60.643917
1753714062827,60.939388
1753714062862,61.044798
1753714062892,61.252241
1753714062926,61.390842
1753714062961,61.677329
1753714062992,61.931796
1753714063023,61.970534
1753714063059,61.656651
1753714063090,61.089935
1753714063128,60.494938
1753714063159,60.105443
1753714063190,60.145496
1753714063224,60.025124
1753714063256,60.033067
1753714063292,60.099851
1753714063324,60.381962
1753714063357,60.531501
1753714063391,60.516553
1753714063425,60.43264
1753714063454,60.294826
1753714063490,60.244578
1753714063520,60.383759
1753714063556,60.534697
1753714063588,60.704178
1753714063619,61.00707
1753714063654,61.058972
1753714063692,61.154506
1753714063727,61.513291
1753714063768,61.602719
1753714063788,61.667602
1753714063822,61.176173
1753714063853,60.471136
1753714063887,60.013678
1753714063919,59.773234
1753714063953,59.76994
1753714063991,60.069239
1753714064044,60.553591
1753714064084,60.885943
1753714064108,61.165444
1753714064137,61.370816
1753714064168,61.402568
1753714064195,61.301988
1753714064229,61.401526
1753714064260,61.457379
1753714064293,61.569704
1753714064326,61.676495
1753714064358,61.794165
1753714064391,61.897258
1753714064425,62.026784
1753714064458,61.961413
1753714064492,61.95733
1753714064525,61.887109
1753714064558,61.955429
1753714064588,61.755754
1753714064620,60.898606
1753714064657,60.327144
1753714064692,60.002096
1753714064727,59.967233
1753714064758,59.982363
1753714064793,59.990801
1753714064826,60.110828
1753714064858,60.292482
1753714064893,60.463916
1753714064924,60.602257
1753714064959,60.6221
1753714064990,60.653982
1753714065026,60.707179
1753714065062,60.828847
1753714065102,60.95931
1753714065125,61.067787
1753714065159,61.179877
1753714065189,61.52889
1753714065226,61.620902
1753714065266,61.846158
1753714065297,61.852043
1753714065325,61.46917
1753714065358,60.971107
1753714065390,60.348576
1753714065423,60.162228
1753714065459,60.053536
1753714065492,60.065254
1753714065525,60.075528
1753714065556,60.138354
1753714065593,60.217371
1753714065630,60.403577
1753714065669,60.524339
1753714065692,60.511338
1753714065731,60.528005
1753714065764,60.59434
1753714065795,60.674165
1753714065824,60.79951
1753714065864,60.944869
1753714065893,61.062273
1753714065925,61.187534
1753714065957,61.430263
1753714065989,61.49139
1753714066022,61.789686
1753714066055,61.590785
1753714066098,60.902988
1753714066132,60.365562
1753714066166,60.178875
1753714066190,59.968424
1753714066226,60.000534
1753714066266,59.997038
1753714066300,60.091238
1753714066327,60.24241
1753714066359,60.275191
1753714066391,60.447288
1753714066420,60.554333
1753714066457,60.593565
1753714066495,60.505863
1753714066527,60.660135
1753714066560,60.79688
1753714066592,60.932291
1753714066625,61.024948
1753714066658,61.115899
1753714066688,61.423004
1753714066726,61.49596
1753714066766,61.541
1753714066793,61.815787
1753714066829,61.669047
1753714066863,61.041426
1753714066895,60.558278
1753714066932,60.160112
1753714066958,60.030189
1753714066987,59.971308
1753714067028,60.146752
1753714067060,60.582933
1753714067099,60.993848
1753714067129,61.257326
1753714067162,61.316747
1753714067196,61.273329
1753714067229,61.193374
1753714067266,61.181707
1753714067297,61.220711
1753714067326,61.296473
1753714067358,61.388121
1753714067391,61.64531
1753714067429,61.867089
1753714067463,61.891718
1753714067498,61.903938
1753714067527,62.108197
1753714067559,62.069043
1753714067589,61.896536
1753714067622,61.424534
1753714067653,60.727759
1753714067697,60.271349
1753714067727,60.221121
1753714067761,60.198504
1753714067794,60.199624
1753714067820,60.275868
1753714067855,60.45206
1753714067892,60.510641
1753714067924,60.507966
1753714067957,60.466045
1753714067989,60.445524
1753714068024,60.482764
1753714068062,60.519697
1753714068096,60.643338
1753714068127,60.874941
1753714068155,61.118725
1753714068188,61.292873
1753714068222,61.395986
1753714068256,61.599659
1753714068294,61.66975
1753714068321,61.729992
1753714068356,61.366291
1753714068390,60.926197
1753714068432,60.325751
1753714068464,60.180691
1753714068497,60.07612
1753714068520,60.08698
1753714068555,60.105098
1753714068588,60.196687
1753714068622,60.250054
1753714068657,60.375185
1753714068690,60.319436
1753714068720,60.331617
1753714068753,60.329761
1753714068792,60.348375
1753714068822,60.372945
1753714068859,60.501019
1753714068894,60.631098
1753714068928,60.881503
1753714068954,61.125489
1753714068988,61.259904
1753714069019,61.344612
1753714069052,61.639692
1753714069092,61.6221
1753714069127,61.310647
1753714069155,60.590876
1753714069191,60.116746
1753714069225,59.89595
1753714069259,59.797635
1753714069293,60.111407
1753714069322,60.679594
1753714069354,60.926302
1753714069390,61.242769
1753714069425,61.319748
1753714069457,61.388603
1753714069496,61.345914
1753714069524,61.358798
1753714069556,61.422789
1753714069591,61.447047
1753714069624,61.489033
1753714069654,61.519098
1753714069691,61.520381
1753714069720,61.455166
1753714069754,61.464085
1753714069790,61.518473
1753714069820,61.644659
1753714069855,61.50863
1753714069892,60.860911
1753714069925,60.407932
1753714069951,60.133595
1753714069987,60.090879
1753714070019,60.101843
1753714070054,60.197378
1753714070102,60.473909
1753714070123,60.561247
1753714070155,60.607836
1753714070190,60.674601
1753714070218,60.590629
1753714070256,60.658891
1753714070297,60.672589
1753714070325,60.728481
1753714070358,60.83108
1753714070391,60.976295
1753714070430,61.069219
1753714070460,61.362639
1753714070494,61.558715
1753714070525,61.560199
1753714070564,61.230327
1753714070596,60.824699
1753714070625,60.292697
1753714070658,60.163067
1753714070692,60.13127
1753714070723,60.18896
1753714070756,60.240548
1753714070791,60.276122
1753714070826,60.439443
1753714070857,60.450641
1753714070892,60.539333
1753714070923,60.531664
1753714070957,60.545492
1753714070992,60.605505
1753714071026,60.665987
1753714071060,60.746418
1753714071093,60.882076
1753714071125,60.960905
1753714071160,61.204767
1753714071191,61.477431
1753714071225,61.6449
1753714071260,61.570785
1753714071293,61.542152
1753714071329,61.040515
1753714071358,60.325516
1753714071392,60.16284
1753714071422,60.146616
1753714071458,60.19032
1753714071490,60.102449
1753714071522,60.228914
1753714071555,60.228641
1753714071592,60.274806
1753714071627,60.190952
1753714071654,60.186434
1753714071691,60.154493
1753714071732,60.180952
1753714071771,60.323153
1753714071799,60.339983
1753714071834,60.485355
1753714071865,60.670668
1753714071891,60.845611
1753714071922,60.98597
1753714071956,61.258621
1753714071990,61.525316
1753714072024,61.610356
1753714072063,61.44958
1753714072095,61.133106
1753714072125,60.427919
1753714072157,60.188628
1753714072193,60.145711
1753714072225,60.147358
1753714072255,60.038477
1753714072295,60.090411
1753714072322,60.256701
1753714072354,60.244364
1753714072390,60.29452
1753714072419,60.229416
1753714072459,60.247749
1753714072493,60.253817
1753714072524,60.428167
1753714072556,60.447991
1753714072592,60.593148
1753714072629,60.872271
1753714072658,60.989316
1753714072688,61.166896
1753714072726,61.397177
1753714072758,61.532888
1753714072791,61.433857
1753714072822,60.913463
1753714072852,60.237742
1753714072891,59.939563
1753714072926,59.862519
1753714072959,59.77662
1753714072991,59.866685
1753714073024,59.990423
1753714073058,60.052676
1753714073091,60.171062
1753714073124,60.213621
1753714073158,60.112911
1753714073191,60.077429
1753714073225,60.080554
1753714073258,60.225236
1753714073299,60.325946
1753714073324,60.373433
1753714073361,60.63378
1753714073391,60.872662
1753714073425,61.016992
1753714073457,61.189526
1753714073493,61.29814
1753714073524,60.945013
1753714073554,60.30355
1753714073589,59.989707
1753714073622,59.732863
1753714073655,59.703559
1753714073694,59.762642
1753714073729,59.827434
1753714073760,59.885442
1753714073791,60.140411
1753714073823,60.16823
1753714073862,60.199344
1753714073897,60.130854
1753714073924,60.141296
1753714073954,60.271584
1753714073987,60.373687
1753714074023,60.435862
1753714074058,60.729529
1753714074098,60.857187
1753714074127,61.050769
1753714074163,61.267053
1753714074196,61.493317
1753714074228,61.579821
1753714074258,61.464645
1753714074288,61.096583
1753714074324,60.506071
1753714074357,60.098699
1753714074387,59.980286
1753714074423,59.895663
1753714074454,59.991986
1753714074491,59.99888
1753714074523,60.166674
1753714074555,60.322014
1753714074591,60.409944
1753714074627,60.353453
1753714074662,60.374781
1753714074698,60.374488
1753714074730,60.366252
1753714074762,60.396604
1753714074797,60.476618
1753714074829,60.647302
1753714074861,60.770324
1753714074891,60.843456
1753714074923,60.970508
1753714074955,61.222625
1753714074987,61.135118
1753714075026,60.57641
1753714075055,60.092794
1753714075089,59.793931
1753714075122,59.80856
1753714075155,59.79147
1753714075190,59.883411
1753714075225,60.013802
1753714075255,60.311682
1753714075292,60.372639
1753714075325,60.461032
1753714075358,60.525843
1753714075389,60.463851
1753714075421,60.489411
1753714075457,60.554639
1753714075496,60.768156
1753714075531,60.973522
1753714075557,61.127898
1753714075589,61.341656
1753714075625,61.604971
1753714075655,61.635766
1753714075689,61.397301
1753714075720,60.746235
1753714075753,60.327873
1753714075790,60.178497
1753714075817,60.156843
1753714075856,60.235561
1753714075893,60.310738
1753714075926,60.409247
1753714075957,60.574958
1753714075989,60.731431
1753714076025,60.720096
1753714076053,60.636651
1753714076090,60.63908
1753714076123,60.761587
1753714076158,60.862362
1753714076187,60.930507
1753714076222,61.093672
1753714076255,61.40997
1753714076295,61.652634
1753714076329,61.804217
1753714076357,62.04808
1753714076390,61.971784
1753714076423,61.093002
1753714076454,60.259832
1753714076494,59.879277
1753714076529,60.045196
1753714076558,60.367281
1753714076589,60.76811
1753714076625,61.10836
1753714076655,61.388512
1753714076691,61.45777
1753714076729,61.554776
1753714076761,61.419925
1753714076793,61.310998
1753714076830,61.251584
1753714076865,61.403811
1753714076896,61.504515
1753714076926,61.51764
1753714076958,61.595902
1753714076988,61.721899
1753714077022,61.758097
1753714077057,61.807779
1753714077092,61.979772
1753714077121,61.98071
1753714077155,61.418108
1753714077187,60.685291
1753714077223,60.299663
1753714077257,60.205392
1753714077299,60.159532
1753714077324,60.222085
1753714077357,60.280972
1753714077392,60.318934
1753714077426,60.402034
1753714077458,60.378036
1753714077499,60.393948
1753714077525,60.334976
1753714077560,60.3398
1753714077592,60.348095
1753714077623,60.436878
1753714077656,60.68837
1753714077689,60.881724
1753714077726,61.002611
1753714077758,61.185913
1753714077799,61.347834
1753714077831,61.160913
1753714077858,60.577211
1753714077893,60.197417
1753714077923,59.885546
1753714077958,59.846399
1753714077991,59.788937
1753714078025,59.859381
1753714078057,60.061674
1753714078096,60.138113
1753714078130,60.243693
1753714078164,60.313791
1753714078193,60.409872
1753714078227,60.357554
1753714078256,60.370263
1753714078292,60.450322
1753714078334,60.679034
1753714078359,60.856913
1753714078391,60.983828
1753714078423,61.177058
1753714078454,61.424078
1753714078492,61.433707
1753714078523,61.157097
1753714078557,60.718019
1753714078589,60.044688
1753714078624,59.936627
1753714078654,59.883189
1753714078691,59.867375
1753714078726,59.919589
1753714078754,60.141928
1753714078788,60.207098
1753714078819,60.307795
1753714078857,60.394931
1753714078890,60.369644
1753714078923,60.363896
1753714078959,60.3965
1753714078990,60.478642
1753714079023,60.60363
1753714079056,60.737889
1753714079088,60.841405
1753714079123,61.094734
1753714079156,61.35801
1753714079188,61.469508
1753714079223,61.534157
1753714079254,61.718709
1753714079291,61.288322
1753714079328,60.635212
1753714079361,60.183491
1753714079398,60.177202
1753714079430,60.130099
1753714079456,60.107429
1753714079497,60.120671
1753714079523,60.188628
1753714079553,60.268862
1753714079591,60.235295
1753714079626,60.262052
1753714079655,60.257072
1753714079692,60.262404
1753714079720,60.292984
1753714079759,60.333974
1753714079793,60.44344
1753714079824,60.543949
1753714079858,60.635571
1753714079894,60.720467
1753714079934,60.932181
1753714079964,61.166316
1753714079989,61.288394
1753714080022,61.26728
1753714080049,60.822942
1753714080087,60.272554
1753714080116,59.932415
1753714080151,59.909804
1753714080185,59.938059
1753714080221,59.8744
1753714080250,60.080398
1753714080282,60.140294
1753714080314,60.238374
1753714080354,60.315627
1753714080391,60.369794
1753714080420,60.290347
1753714080455,60.274312
1753714080493,60.336285
1753714080533,60.534886
1753714080563,60.68979
1753714080594,60.782779
1753714080626,60.943665
1753714080657,61.167273
1753714080692,61.299051
1753714080731,61.273472
1753714080753,60.918346
1753714080790,60.561996
1753714080831,60.153588
1753714080864,59.955436
1753714080900,59.910149
1753714080930,59.981914
1753714080960,60.060873
1753714080993,60.108132
1753714081022,60.231544
1753714081053,60.341207
1753714081093,60.459424
1753714081131,60.484196
1753714081159,60.427685
1753714081190,60.529593
1753714081221,60.636905
1753714081255,60.776379
1753714081284,60.862851
1753714081326,61.028249
1753714081358,61.255881
1753714081393,61.40665
1753714081424,61.47915
1753714081457,61.5343
1753714081493,61.619594
1753714081530,61.087149
1753714081567,60.602491
1753714081591,60.329253
1753714081624,60.204949
1753714081657,60.212287
1753714081688,60.273934
1753714081725,60.344716
1753714081763,60.41874
1753714081796,60.545863
1753714081821,60.61434
1753714081862,60.529548
1753714081898,60.521651
1753714081930,60.520986
1753714081956,60.578604
1753714081993,60.670421
1753714082024,60.782824
1753714082055,61.011413
1753714082092,61.143718
1753714082122,61.246512
1753714082162,61.280965
1753714082190,61.421051
1753714082222,61.59725
1753714082256,61.291408
1753714082292,60.665942
1753714082319,60.284579
1753714082359,60.086023
1753714082392,60.067735
1753714082425,60.134454
1753714082455,60.203908
1753714082493,60.230275
1753714082524,60.325035
1753714082558,60.345269
1753714082587,60.344449
1753714082623,60.324299
1753714082653,60.330888
1753714082690,60.412431
1753714082725,60.614932
1753714082756,60.763097
1753714082787,60.861483
1753714082825,61.031524
1753714082855,61.258589
1753714082890,61.396441
1753714082925,61.345295
1753714082960,61.096518
1753714082991,60.647159
1753714083023,60.285028
1753714083055,60.128796
1753714083089,60.108432
1753714083127,60.175509
1753714083156,60.258771
1753714083190,60.313348
1753714083230,60.564789
1753714083259,60.667042
1753714083288,60.638214
1753714083325,60.651313
1753714083359,60.571599
1753714083394,60.670187
1753714083427,60.779152
1753714083459,60.915195
1753714083492,61.054167
1753714083520,61.264123
1753714083555,61.394371
1753714083590,61.33982
1753714083621,61.489248
1753714083656,61.212846
1753714083691,60.661625
1753714083726,60.286962
1753714083760,60.158367
1753714083803,60.120671
1753714083827,60.101739
1753714083856,60.123184
1753714083888,60.222508
1753714083921,60.230646
1753714083957,60.417359
1753714083988,60.472451
1753714084022,60.514248
1753714084058,60.4707
1753714084098,60.5935
1753714084126,60.620128
1753714084156,60.617914
1753714084188,60.705923
1753714084222,60.93304
1753714084264,61.170333
1753714084291,61.303654
1753714084326,61.369937
1753714084359,61.40665
1753714084388,61.581768
1753714084425,61.243367
1753714084459,60.784445
1753714084487,60.31355
1753714084525,60.186635
1753714084559,60.095508
1753714084592,60.138289
1753714084624,60.160906
1753714084652,60.237189
1753714084690,60.240112
1753714084724,60.365041
1753714084760,60.389098
1753714084789,60.357073
1753714084825,60.327756
1753714084860,60.32523
1753714084892,60.416826
1753714084924,60.467972
1753714084954,60.550453
1753714084990,60.571039
1753714085022,60.67393
1753714085058,60.859413
1753714085091,61.053796
1753714085122,61.104584
1753714085159,60.872955
1753714085188,60.498988
1753714085224,60.198667
1753714085259,59.904745
1753714085289,59.803592
1753714085323,59.822538
1753714085355,59.795715
1753714085391,59.955306
1753714085423,60.068633
1753714085454,60.172065
1753714085485,60.124806
1753714085522,60.152931
1753714085561,60.154994
1753714085593,60.163972
1753714085624,60.231004
1753714085658,60.331128
1753714085686,60.498786
1753714085726,60.647953
1753714085757,60.732003
1753714085787,60.858072
1753714085830,60.996582
1753714085859,60.832772
1753714085898,60.320113
1753714085927,60.015716
1753714085960,59.800936
1753714085994,59.791307
1753714086028,59.690044
1753714086058,59.758416
1753714086097,60.049818
1753714086122,60.038685
1753714086159,60.09515
1753714086189,60.156329
1753714086225,60.255243
1753714086257,60.29715
1753714086291,60.251994
1753714086322,60.280822
1753714086353,60.467776
1753714086394,60.631521
1753714086433,60.750161
1753714086457,60.889257
1753714086499,61.103451
1753714086527,61.258556
1753714086557,61.311766
1753714086591,61.230262
1753714086624,61.027669
1753714086657,60.503128
1753714086690,60.079161
1753714086719,59.893697
1753714086750,59.862564
1753714086791,59.950755
1753714086825,60.039518
1753714086861,60.061172
1753714086897,60.167579
1753714086923,60.154747
1753714086962,60.20799
1753714086988,60.21618
1753714087025,60.245353
1753714087063,60.300855
1753714087093,60.392815
1753714087126,60.521123
1753714087160,60.644405
1753714087192,60.686261
1753714087223,60.915514
1753714087255,61.145457
1753714087288,61.258706
1753714087331,61.185678
1753714087364,60.867271
1753714087391,60.170262
1753714087421,59.903502
1753714087454,59.676502
1753714087488,59.734966
1753714087530,59.638136
1753714087562,59.736261
1753714087596,59.957435
1753714087625,60.019056
1753714087660,60.176974
1753714087695,60.173263
1753714087726,60.097774
1753714087758,60.088698
1753714087788,60.114148
1753714087825,60.282945
1753714087856,60.466025
1753714087888,60.622022
1753714087928,60.736313
1753714087960,60.888684
1753714087988,61.090736
1753714088022,61.080554
1753714088055,60.566566
1753714088094,60.107716
1753714088134,59.844048
1753714088171,59.684256
1753714088201,59.833684
1753714088238,59.801965
1753714088262,60.084206
1753714088298,60.185359
1753714088331,60.312072
1753714088367,60.32788
1753714088402,60.3287
1753714088433,60.327613
1753714088459,60.368778
1753714088499,60.427067
1753714088526,60.536026
1753714088554,60.64852
1753714088592,60.738794
1753714088630,60.90735
1753714088666,61.138145
1753714088693,61.295581
1753714088728,61.208732
1753714088762,61.110359
1753714088796,60.476631
1753714088821,60.153432
1753714088852,59.988255
1753714088886,59.931998
1753714088936,60.00959
1753714088967,60.115593
1753714089004,60.184669
1753714089041,60.244858
1753714089071,60.491396
1753714089099,60.568383
1753714089129,60.437529
1753714089161,60.435042
1753714089194,60.560772
1753714089227,60.662329
1753714089260,60.735337
1753714089300,60.929069
1753714089329,61.161368
1753714089364,61.315458
1753714089396,61.405263
1753714089421,61.472614
1753714089453,61.719601
1753714089496,61.510225
1753714089528,60.993086
1753714089553,60.547842
1753714089591,60.291962
1753714089623,60.157345
1753714089653,60.17644
1753714089693,60.207228
1753714089722,60.315985
1753714089754,60.375055
1753714089794,60.541423
1753714089823,60.447054
1753714089868,60.380185
1753714089901,60.35191
1753714089946,60.347659
1753714089962,60.444358
1753714089991,60.511963
1753714090018,60.617947
1753714090049,60.76507
1753714090084,60.93804
1753714090117,61.174129
1753714090149,61.301564
1753714090185,61.170965
1753714090215,61.101589
1753714090248,60.641449
1753714090283,60.150567
1753714090317,60.023399
1753714090349,60.027266
1753714090382,60.083119
1753714090421,60.198133
1753714090451,60.365985
1753714090483,60.585818
1753714090514,60.732511
1753714090550,60.686645
1753714090583,60.745767
1753714090617,60.639301
1753714090649,60.660746
1753714090683,60.850683
1753714090716,61.039662
1753714090751,61.267202
1753714090786,61.435387
1753714090818,61.44387
1753714090852,61.758794
1753714090888,61.739985
1753714090925,61.204272
1753714090967,60.170867
1753714090986,59.746841
1753714091019,59.642413
1753714091049,59.834869
1753714091084,60.258901
1753714091118,60.623832
1753714091149,60.955136
1753714091185,61.240789
1753714091217,61.258381
1753714091249,61.230197
1753714091283,61.068913
1753714091317,60.995202
1753714091350,60.981198
1753714091383,60.994206
1753714091415,61.052585
1753714091445,61.30051
1753714091482,61.429449
1753714091516,61.537725
1753714091551,61.645421
1753714091585,61.928209
1753714091619,61.871952
1753714091650,61.59378
1753714091684,61.006856
1753714091717,60.265874
1753714091751,59.825682
1753714091785,59.774562
1753714091817,59.994251
1753714091847,60.333811
1753714091880,60.655284
1753714091917,61.047611
1753714091951,61.229943
1753714091987,61.229409
1753714092021,61.318322
1753714092052,61.131609
1753714092085,61.024343
1753714092119,61.004531
1753714092150,61.080573
1753714092179,61.195698
1753714092214,61.487327
1753714092250,61.599034
1753714092292,61.556436
1753714092322,61.449248
1753714092353,61.652153
1753714092388,61.678429
1753714092425,61.69479
1753714092460,61.507022
1753714092495,61.064441
1753714092524,60.469365
1753714092562,60.139812
1753714092590,59.864511
1753714092627,59.802538
1753714092659,59.865351
1753714092696,59.921106
1753714092725,59.95584
1753714092762,60.143412
1753714092792,60.315503
1753714092825,60.29131
1753714092859,60.22228
1753714092901,60.192963
1753714092926,60.336877
1753714092961,60.370445
1753714092997,60.585583
1753714093025,60.83147
1753714093059,61.020182
1753714093091,61.036836
1753714093125,61.35661
1753714093156,61.445765
1753714093190,61.570915
1753714093224,61.38859
1753714093259,61.05125
1753714093292,60.578754
1753714093322,60.203842
1753714093353,60.032656
1753714093397,60.077292
1753714093425,60.108497
1753714093457,60.254533
1753714093493,60.384058
1753714093529,60.535088
1753714093561,60.674887
1753714093594,60.70229
1753714093630,60.724959
1753714093654,60.77742
1753714093691,60.865175
1753714093726,60.988463
1753714093758,61.069577
1753714093798,61.165691
1753714093823,61.474625
1753714093855,61.558513
1753714093889,61.601898
1753714093924,61.884517
1753714093956,61.913971
1753714093990,61.771821
1753714094022,61.104864
1753714094057,60.319514
1753714094089,59.855149
1753714094123,59.86526
1753714094159,60.108334
1753714094190,60.426975
1753714094222,60.772941
1753714094259,61.024212
1753714094290,61.275262
1753714094323,61.390022
1753714094355,61.300048
1753714094391,61.212996
1753714094421,61.163048
1753714094457,61.190184
1753714094497,61.339078
1753714094525,61.382327
1753714094560,61.400979
1753714094591,61.644815
1753714094626,61.699803
1753714094661,61.849973
1753714094697,61.889719
1753714094728,62.158959
1753714094759,62.126153
1753714094797,61.802434
1753714094823,61.304383
1753714094854,60.782349
1753714094890,60.552608
1753714094926,60.374989
1753714094961,60.38635
1753714094991,60.385784
1753714095025,60.466637
1753714095059,60.506748
1753714095090,60.688012
1753714095122,60.783215
1753714095154,60.707628
1753714095193,60.77867
1753714095228,60.771418
1753714095260,60.844315
1753714095294,60.951282
1753714095325,61.071517
1753714095354,61.147312
1753714095388,61.225073
1753714095419,61.540674
1753714095455,61.603246
1753714095497,61.65074
1753714095530,61.825175
1753714095564,61.411311
1753714095595,60.785213
1753714095629,60.4429
1753714095664,60.338355
1753714095699,60.22674
1753714095725,60.31301
1753714095756,60.43499
1753714095785,60.512412
1753714095822,60.728501
1753714095855,60.897324
1753714095900,60.865559
1753714095932,60.772778
1753714095964,60.877109
1753714095997,60.920214
1753714096027,60.991634
1753714096057,61.106732
1753714096085,61.166752
1753714096124,61.47012
1753714096156,61.55863
1753714096189,61.609301
1753714096222,61.899212
1753714096253,61.752225
1753714096291,60.863912
1753714096330,60.171433
1753714096357,59.909706
1753714096385,60.018353
1753714096420,60.278251
1753714096453,60.583448
1753714096492,60.882349
1753714096528,61.205724
1753714096563,61.421194
1753714096584,61.336155
1753714096618,61.170913
1753714096651,61.039291
1753714096689,61.088725
1753714096722,61.156746
1753714096760,61.242183
1753714096789,61.270803
1753714096821,61.532556
1753714096856,61.63518
1753714096891,61.837883
1753714096921,62.05278
1753714096953,62.088744
1753714096995,62.158471
1753714097027,61.954466
1753714097064,61.065593
1753714097091,60.280171
1753714097120,59.809074
1753714097155,59.691723
1753714097190,60.027481
1753714097221,60.36411
1753714097256,60.696541
1753714097288,61.002487
1753714097319,61.230418
1753714097350,61.371552
1753714097391,61.273348
1753714097420,61.039681
1753714097453,61.037357
1753714097495,61.004518
1753714097530,61.129695
1753714097564,61.234826
1753714097593,61.265138
1753714097623,61.224943
1753714097656,61.371877
1753714097695,61.275542
1753714097733,61.310927
1753714097755,61.455446
1753714097788,61.244722
1753714097821,60.767049
1753714097855,60.252873
1753714097892,59.855963
1753714097922,59.776568
1753714097956,59.729764
1753714097993,59.734888
1753714098018,59.838143
1753714098052,59.904615
1753714098088,60.107331
1753714098127,60.238921
1753714098155,60.17948
1753714098187,60.181616
1753714098225,60.205607
1753714098255,60.357769
1753714098287,60.46122
1753714098319,60.533454
1753714098354,60.623142
1753714098390,60.959524
1753714098423,61.046016
1753714098455,61.130001
1753714098489,61.407275
1753714098528,61.093725
1753714098557,60.727759
1753714098589,60.114356
1753714098621,60.052787
1753714098655,59.949863
1753714098693,59.908495
1753714098722,59.995397
1753714098758,60.246766
1753714098787,60.610772
1753714098821,60.935338
1753714098853,61.367548
1753714098889,61.667192
1753714098925,61.80647
1753714098965,61.74772
1753714098988,61.899452
1753714099018,62.025625
1753714099052,62.334996
1753714099083,62.439052
1753714099114,62.500492
1753714099145,62.666997
1753714099180,62.372014
1753714099213,62.3087
1753714099249,62.267378
1753714099281,61.772915
1753714099315,60.913046
1753714099350,59.969134
1753714099381,59.53904
1753714099413,59.368453
1753714099448,59.575935
1753714099482,59.792544
1753714099514,60.146427
1753714099549,60.448558
1753714099582,60.828671
1753714099614,61.073262
1753714099648,60.983802
1753714099686,60.778475
1753714099727,60.750311
1753714099760,60.881887
1753714099790,61.048457
1753714099825,61.230692
1753714099856,61.393948
1753714099889,61.433707
1753714099925,61.525928
1753714099953,61.473922
1753714099987,61.556931
1753714100021,61.552106
1753714100055,61.737479
1753714100085,61.630167
1753714100118,61.10935
1753714100151,60.428499
1753714100186,59.927415
1753714100219,59.789914
1753714100254,59.686176
1753714100291,59.588526
1753714100322,59.700376
1753714100356,59.707628
1753714100387,59.82705
1753714100423,59.908613
1753714100457,59.86884
1753714100496,59.839035
1753714100525,59.854823
1753714100554,60.002435
1753714100594,60.145418
1753714100632,60.296747
1753714100662,60.448753
1753714100698,60.674842
1753714100727,60.752713
1753714100758,60.839517
1753714100795,61.1267
1753714100823,60.993177
1753714100858,60.558428
1753714100895,60.065306
1753714100924,59.717147
1753714100960,59.607823
1753714100995,59.595036
1753714101026,59.655414
1753714101060,59.783775
1753714101088,59.958359
1753714101121,60.11974
1753714101157,60.137442
1753714101190,60.124285
1753714101220,60.158074
1753714101261,60.131915
1753714101297,60.197065
1753714101327,60.286336
1753714101357,60.430185
1753714101390,60.62503
1753714101421,60.752277
1753714101458,60.830116
1753714101494,60.896191
1753714101525,61.04694
1753714101557,60.915787
1753714101592,60.322352
1753714101620,59.933737
1753714101666,59.659842
1753714101692,59.514007
1753714101724,59.489346
1753714101763,59.546833
1753714101790,59.633337
1753714101828,59.688429
1753714101862,59.919641
1753714101885,60.013639
1753714101923,59.96694
1753714101958,60.000775
1753714101988,60.027709
1753714102029,59.984811
1753714102062,60.127917
1753714102094,60.294416
1753714102126,60.466019
1753714102164,60.68809
1753714102196,60.765226
1753714102228,60.828827
1753714102259,61.098874
1753714102293,61.132774
1753714102330,61.064226
1753714102358,60.55751
1753714102383,60.010527
1753714102420,59.605219
1753714102455,59.588292
1753714102492,59.55516
1753714102531,59.560765
1753714102559,59.588988
1753714102591,59.602204
1753714102621,59.766255
1753714102651,59.852226
1753714102688,59.76033
1753714102722,59.748228
1753714102753,59.781965
1753714102787,59.804628
1753714102823,59.849081
1753714102858,59.921412
1753714102891,60.10823
1753714102921,60.18853
1753714102951,60.314462
1753714102990,60.498564
1753714103030,60.621254
1753714103063,60.672342
1753714103090,60.619633
1753714103127,60.485459
1753714103156,60.035013
1753714103195,59.559847
1753714103228,59.466344
1753714103261,59.429098
1753714103292,59.45178
1753714103327,59.568285
1753714103356,59.700669
1753714103387,59.859185
1753714103421,59.997214
1753714103453,59.96112
1753714103489,59.875416
1753714103529,59.843834
1753714103558,59.938828
1753714103596,60.111205
1753714103623,60.09392
1753714103657,60.271486
1753714103694,60.494261
1753714103729,60.642094
1753714103758,60.724764
1753714103792,60.771157
1753714103824,60.851809
1753714103852,60.334846
1753714103895,59.890481
1753714103923,59.676678
1753714103954,59.55555
1753714103988,59.586267
1753714104022,59.652576
1753714104052,59.766965
1753714104092,59.954876
1753714104128,60.147104
1753714104159,60.157052
1753714104193,60.085534
1753714104226,60.150353
1753714104261,60.110652
1753714104296,60.245802
1753714104330,60.380868
1753714104360,60.554925
1753714104392,60.793697
1753714104421,60.986621
1753714104455,61.002962
1753714104489,61.324019
1753714104525,61.384254
1753714104561,61.425185
1753714104594,61.571644
1753714104629,61.08629
1753714104661,60.526058
1753714104700,60.117345
1753714104730,60.004876
1753714104763,59.981113
1753714104798,59.975377
1753714104829,60.05472
1753714104860,60.188992
1753714104896,60.245373
1753714104936,60.310673
1753714104967,60.376194
1753714104998,60.332144
1753714105034,60.337665
1753714105065,60.334892
1753714105101,60.318785
1753714105125,60.371376
1753714105152,60.629028
1753714105185,60.786483
1753714105221,60.946328
1753714105254,61.018509
1753714105284,61.05295
1753714105319,61.120476
1753714105355,60.870963
1753714105393,60.340061
1753714105426,59.977239
1753714105455,59.716704
1753714105489,59.692863
1753714105521,59.786672
1753714105566,59.89315
1753714105595,59.998939
1753714105624,60.192534
1753714105657,60.327684
1753714105689,60.420185
1753714105719,60.412724
1753714105755,60.351532
1753714105787,60.295731
1753714105822,60.355425
1753714105856,60.59559
1753714105894,60.785545
1753714105925,60.947565
1753714105954,61.049772
1753714105990,61.270842
1753714106019,61.318518
1753714106053,61.243094
1753714106094,60.684308
1753714106125,60.184402
1753714106156,59.913411
1753714106187,59.855019
1753714106219,59.787538
1753714106250,59.93136
1753714106285,59.991588
1753714106319,60.180431
1753714106355,60.22685
1753714106390,60.392574
1753714106428,60.502887
1753714106455,60.497868
1753714106487,60.45721
1753714106523,60.472236
1753714106555,60.633227
1753714106586,60.798306
1753714106619,60.950384
1753714106654,61.035241
1753714106686,61.113705
1753714106722,61.324781
1753714106754,61.455927
1753714106788,61.480993
1753714106823,61.667609
1753714106858,61.238556
1753714106894,60.649483
1753714106924,60.172078
1753714106952,60.039466
1753714106986,60.003704
1753714107024,59.997819
1753714107053,60.122201
1753714107086,60.199044
1753714107125,60.295178
1753714107157,60.494958
1753714107189,60.6413
1753714107222,60.652198
1753714107254,60.677459
1753714107296,60.607426
1753714107324,60.610356
1753714107355,60.782596
1753714107390,60.955911
1753714107420,61.043581
1753714107455,61.112475
1753714107493,61.414625
1753714107524,61.485654
1753714107556,61.614574
1753714107584,61.603813
1753714107625,61.665551
1753714107656,61.033418
1753714107689,60.538076
1753714107721,60.132455
1753714107754,59.918522
1753714107788,59.872011
1753714107822,59.950371
1753714107850,59.935631
1753714107891,60.06903
1753714107934,60.191368
1753714107965,60.182996
1753714107991,60.161935
1753714108022,60.150079
1753714108055,60.088093
1753714108087,60.142709
1753714108118,60.239259
1753714108159,60.373271
1753714108190,60.66837
1753714108224,60.867616
1753714108256,60.987995
1753714108292,61.077891
1753714108325,61.276708
1753714108356,61.310425
1753714108387,60.962591
1753714108423,60.438479
1753714108456,60.024857
1753714108493,59.901666
1753714108524,59.849394
1753714108560,59.888886
1753714108588,59.864752
1753714108622,60.046107
1753714108652,60.187697
1753714108686,60.307847
1753714108722,60.417932
1753714108755,60.443707
1753714108790,60.348609
1753714108823,60.320731
1753714108854,60.319566
1753714108895,60.500765
1753714108927,60.726066
1753714108957,60.884329
1753714108992,60.979225
1753714109025,61.064603
1753714109057,61.273732
1753714109090,61.353856
1753714109125,61.066322
1753714109158,60.641866
1753714109191,60.169975
1753714109222,59.940358
1753714109255,59.871757
1753714109292,59.898613
1753714109325,59.864674
1753714109359,60.048243
1753714109389,60.196043
1753714109426,60.235529
1753714109455,60.412971
1753714109491,60.482777
1753714109524,60.422854
1753714109557,60.424039
1753714109589,60.574092
1753714109623,60.719009
1753714109653,60.859862
1753714109693,60.953958
1753714109726,61.044232
1753714109759,61.362047
1753714109792,61.440576
1753714109830,61.547139
1753714109864,61.555616
1753714109894,61.11224
1753714109922,60.581696
1753714109957,60.194799
1753714109988,59.987871
1753714110025,60.015872
1753714110057,60.017819
1753714110094,60.140821
1753714110125,60.269422
1753714110158,60.330263
1753714110186,60.556983
1753714110226,60.492028
1753714110256,60.446572
1753714110291,60.421604
1753714110326,60.453278
1753714110359,60.50945
1753714110391,60.590251
1753714110420,60.665141
1753714110453,60.816138
1753714110490,60.984766
1753714110523,61.023158
1753714110560,61.286239
1753714110587,61.311688
1753714110621,61.288928
1753714110654,60.846744
1753714110688,60.307977
1753714110723,60.018333
1753714110756,59.824113
1753714110789,59.806268
1753714110824,59.926562
1753714110860,59.970286
1753714110893,60.224793
1753714110925,60.412372
1753714110956,60.552536
1753714110989,60.627608
1753714111029,60.641117
1753714111061,60.672498
1753714111094,60.765044
1753714111123,60.85897
1753714111156,60.962038
1753714111191,61.030638
1753714111222,61.11295
1753714111257,61.435485
1753714111291,61.528063
1753714111321,61.520811
1753714111355,61.521716
1753714111395,60.879251
1753714111426,60.537705
1753714111464,60.105834
1753714111491,60.133595
1753714111524,60.225249
1753714111556,60.292476
1753714111586,60.445498
1753714111621,60.49167
1753714111656,60.781802
1753714111699,60.877857
1753714111727,60.825819
1753714111756,60.833664
1753714111788,60.848293
1753714111818,60.903163
1753714111852,60.997839
1753714111890,61.118809
1753714111925,61.159363
1753714111962,61.440927
1753714111988,61.499619
1753714112022,61.63962
1753714112055,61.639431
1753714112097,61.527549
1753714112127,60.829869
1753714112157,60.417744
1753714112191,60.018919
1753714112223,60.035319
1753714112258,60.112299
1753714112292,60.160685
1753714112324,60.258407
1753714112357,60.359514
1753714112393,60.539379
1753714112435,60.639861
1753714112463,60.654145
1753714112491,60.640356
1753714112522,60.647615
1753714112551,60.721847
1753714112585,60.818658
1753714112620,60.922369
1753714112655,60.981198
1753714112692,61.045183
1753714112725,61.352522
1753714112767,61.41803
1753714112794,61.54516
1753714112828,61.567491
1753714112857,61.646795
1753714112889,61.039089
1753714112923,60.426858
1753714112955,60.145418
1753714112989,59.928398
1753714113022,59.917324
1753714113054,59.901438
1753714113094,59.95998
1753714113130,60.078737
1753714113159,60.141179
1753714113193,60.127162
1753714113226,60.099024
1753714113253,60.064538
1753714113291,60.041185
1753714113324,60.064707
1753714113355,60.125593
1753714113389,60.234455
1753714113421,60.441787
1753714113457,60.687485
1753714113491,60.85037
1753714113527,60.936139
1753714113562,60.961491
1753714113595,60.916914
1753714113626,60.44208
1753714113663,59.97265
1753714113693,59.685493
1753714113727,59.562959
1753714113760,59.609145
1753714113792,59.67214
1753714113832,59.788462
1753714113867,59.959785
1753714113896,60.165268
1753714113925,60.146524
1753714113953,60.14239
1753714113992,60.041439
1753714114033,60.106772
1753714114069,60.171928
1753714114102,60.284859
1753714114131,60.409534
1753714114160,60.531
1753714114188,60.73425
1753714114221,60.872239
1753714114253,60.83619
1753714114295,61.001263
1753714114324,60.585492
1753714114352,60.017533
1753714114391,59.605837
1753714114421,59.455849
1753714114454,59.437379
1753714114489,59.846568
1753714114522,60.322333
1753714114553,60.608995
1753714114589,60.78979
1753714114627,61.031413
1753714114658,61.052305
1753714114693,60.918561
1753714114723,60.880221
1753714114759,60.885676
1753714114789,61.055306
1753714114826,61.206688
1753714114855,61.261128
1753714114889,61.359508
1753714114923,61.499137
1753714114955,61.534157
1753714114988,61.444306
1753714115018,61.713084
1753714115055,61.692381
1753714115095,61.160509
1753714115129,60.551534
1753714115162,60.141817
1753714115200,60.030625
1753714115223,60.026634
1753714115253,60.11866
1753714115289,60.091055
1753714115322,60.182065
1753714115352,60.201609
1753714115390,60.321135
1753714115419,60.332912
1753714115454,60.290965
1753714115486,60.267736
1753714115527,60.302801
1753714115553,60.319846
1753714115584,60.376773
1753714115619,60.469241
1753714115654,60.583767
1753714115691,60.616013
1753714115724,60.694249
1753714115758,60.902356
1753714115787,60.809191
1753714115828,60.378551
1753714115857,59.852538
1753714115889,59.557126
1753714115921,59.546859
1753714115955,59.519085
1753714115988,59.586241
1753714116023,59.669685
1753714116055,59.913378
1753714116090,60.028919
1753714116121,59.999414
1753714116152,59.933072
1753714116186,59.837219
1753714116221,59.811932
1753714116252,59.934648
1753714116286,60.116993
1753714116321,60.197625
1753714116355,60.395003
1753714116389,60.541872
1753714116425,60.659477
1753714116455,60.769556
1753714116489,60.728683
1753714116523,60.270275
1753714116555,59.740513
1753714116590,59.518597
1753714116621,59.518343
1753714116656,59.539183
1753714116688,59.610896
1753714116722,59.63436
1753714116756,59.830897
1753714116789,59.823423
1753714116825,59.929342
1753714116857,59.783475
1753714116895,59.753944
1753714116925,59.850591
1753714116954,59.880885
1753714116990,59.947936
1753714117024,59.960462
1753714117058,60.165437
1753714117092,60.352867
1753714117121,60.466273
1753714117152,60.492008
1753714117189,60.563383
1753714117225,60.550752
1753714117256,60.246733
1753714117294,59.688859
1753714117325,59.295992
1753714117355,59.210646
1753714117392,59.412802
1753714117423,59.866028
1753714117451,60.32176
1753714117486,60.642693
1753714117523,60.794361
1753714117556,61.076329
1753714117591,61.036817
1753714117623,60.924414
1753714117659,60.846575
1753714117693,60.887649
1753714117728,60.970358
1753714117758,61.022233
1753714117793,61.088288
1753714117824,61.058965
1753714117858,61.225099
1753714117894,61.265073
1753714117929,61.110717
1753714117957,61.182872
1753714117986,61.188784
1753714118023,60.670473
1753714118054,60.015039
1753714118093,59.648103
1753714118128,59.449013
1753714118158,59.439821
1753714118191,59.525524
1753714118222,59.620141
1753714118257,59.725949
1753714118292,59.742251
1753714118328,59.872525
1753714118362,59.745037
1753714118394,59.659848
1753714118425,59.703709
1753714118457,59.62046
1753714118493,59.687902
1753714118522,59.869537
1753714118555,59.995931
1753714118589,60.127846
1753714118622,60.287079
1753714118657,60.356057
1753714118691,60.538467
1753714118728,60.63156
1753714118752,60.428518
1753714118788,59.993086
1753714118821,59.57042
1753714118861,59.38999
1753714118896,59.352587
1753714118922,59.36413
1753714118958,59.450693
1753714118989,59.571039
1753714119022,59.688559
1753714119057,59.698722
1753714119096,59.80384
1753714119123,59.747941
1753714119157,59.731398
1753714119190,59.843104
1753714119224,59.902643
1753714119257,59.997246
1753714119293,60.071504
1753714119328,60.255939
1753714119362,60.25896
1753714119392,60.508643
1753714119427,60.649503
1753714119456,60.523324
1753714119495,60.101674
1753714119523,59.651157
1753714119555,59.468799
1753714119588,59.411793
1753714119620,59.385139
1753714119656,59.422431
1753714119689,59.539899
1753714119729,59.675239
1753714119758,59.701489
1753714119791,59.843352
1753714119822,59.86593
1753714119856,59.909309
1753714119889,59.952897
1753714119925,60.030931
1753714119963,60.14685
1753714119991,60.210783
1753714120026,60.405725
1753714120057,60.525889
1753714120088,60.734451
1753714120121,60.838072
1753714120152,60.979154
1753714120188,61.137898
1753714120223,61.0678
1753714120258,60.648989
1753714120290,60.060651
1753714120323,59.751639
1753714120358,59.729764
1753714120390,59.666202
1753714120429,59.707101
1753714120462,59.775513
1753714120499,59.815031
1753714120526,60.054662
1753714120559,60.047168
1753714120588,60.052162
1753714120618,60.021797
1753714120653,60.010007
1753714120691,60.068633
1753714120727,60.117468
1753714120759,60.181251
1753714120798,60.28523
1753714120828,60.299403
1753714120856,60.551898
1753714120893,60.716964
1753714120923,60.870331
1753714120954,60.863157
1753714120987,60.616664
1753714121022,60.155463
1753714121056,59.647244
1753714121091,59.557634
1753714121125,59.567067
1753714121158,59.624314
1753714121192,59.725187
1753714121225,59.862362
1753714121258,60.114955
1753714121292,60.083939
1753714121326,60.071335
1753714121355,60.047598
1753714121387,60.094473
1753714121424,60.253862
1753714121461,60.349514
1753714121499,60.4643
1753714121530,60.521983
1753714121559,60.726216
1753714121587,60.885735
1753714121614,60.980762
1753714121654,61.138145
1753714121688,61.016699
1753714121723,60.446884
1753714121761,60.061088
1753714121794,59.785526
1753714121826,59.747863
1753714121859,59.744744
1753714121892,59.820533
1753714121930,59.857974
1753714121964,60.18812
1753714121998,60.264995
1753714122029,60.324143
1753714122058,60.155795
1753714122090,60.126934
1753714122123,60.235275
1753714122153,60.341278
1753714122189,60.436136
1753714122223,60.635421
1753714122253,60.861776
1753714122287,60.951536
1753714122321,61.108035
1753714122356,61.322776
1753714122386,61.457451
1753714122428,61.504801
1753714122459,61.30077
1753714122489,60.887656
1753714122525,60.198569
1753714122556,59.995195
1753714122590,59.991673
1753714122626,59.951699
1753714122656,60.006537
1753714122688,60.229526
1753714122730,60.290477
1753714122765,60.401832
1753714122793,60.382659
1753714122819,60.400237
1753714122858,60.388655
1753714122891,60.397633
1753714122922,60.41135
1753714122953,60.489756
1753714122986,60.60376
1753714123019,60.718214
1753714123052,60.847642
1753714123096,60.88955
1753714123127,61.06265
1753714123155,61.187351
1753714123186,60.971269
1753714123224,60.452646
1753714123255,59.900299
1753714123290,59.661651
1753714123325,59.652302
1753714123354,59.78384
1753714123391,59.854927
1753714123422,59.900058
1753714123456,60.198074
1753714123491,60.106674
1753714123523,59.951686
1753714123554,59.986725
1753714123584,59.991152
1753714123621,59.973177
1753714123652,60.135678
1753714123688,60.156765
1753714123729,60.3626
1753714123758,60.47596
1753714123789,60.694471
1753714123822,60.79093
1753714123852,60.867851
1753714123890,60.697381
1753714123922,60.158771
1753714123956,59.673754
1753714123988,59.637218
1753714124023,59.679751
1753714124052,59.779478
1753714124087,59.884472
1753714124121,59.956399
1753714124157,60.276454
1753714124186,60.312066
1753714124218,60.283062
1753714124255,60.205861
1753714124295,60.174012
1753714124326,60.197664
1753714124356,60.2673
1753714124389,60.385146
1753714124422,60.667036
1753714124452,60.861399
1753714124490,60.977571
1753714124523,61.136954
1753714124558,61.337834
1753714124588,61.409215
1753714124625,61.162761
1753714124654,60.517158
1753714124690,60.06653
1753714124724,59.889413
1753714124755,59.945957
1753714124789,59.951048
1753714124821,59.938431
1753714124854,60.173556
1753714124889,60.24827
1753714124924,60.352639
1753714124956,60.315061
1753714124987,60.336089
1753714125023,60.304943
1753714125055,60.317684
1753714125088,60.339481
1753714125124,60.422197
1753714125162,60.58587
1753714125190,60.687791
1753714125232,60.749119
1753714125272,60.867597
1753714125290,61.183139
1753714125325,61.232104
1753714125359,60.934342
1753714125390,60.237651
1753714125424,59.926471
1753714125457,59.845318
1753714125490,59.77466
1753714125522,59.858463
1753714125556,59.917226
1753714125587,59.953073
1753714125625,60.175991
1753714125654,60.144382
1753714125689,60.014277
1753714125718,59.967858
1753714125755,60.047201
1753714125787,60.099493
1753714125821,60.172638
1753714125856,60.359338
1753714125892,60.367854
1753714125931,60.641267
1753714125959,60.850689
1753714125990,60.957448
1753714126031,61.040469
1753714126060,60.874374
1753714126103,60.351806
1753714126139,59.883912
1753714126167,59.776034
1753714126201,59.762375
1753714126228,59.821054
1753714126257,59.902402
1753714126296,59.960755
1753714126326,60.294143
1753714126358,60.329104
1753714126392,60.289351
1753714126423,60.316024
1753714126454,60.197104
1753714126487,60.278342
1753714126523,60.433356
1753714126559,60.497432
1753714126589,60.676873
1753714126625,60.876718
1753714126655,60.993555
1753714126690,61.159982
1753714126725,61.299462
1753714126755,61.034942
1753714126789,60.427972
1753714126826,60.040157
1753714126858,59.902831
1753714126891,59.833313
1753714126925,59.956367
1753714126957,60.012611
1753714126990,60.26797
1753714127022,60.338726
1753714127056,60.311662
1753714127085,60.455192
1753714127121,60.406298
1753714127154,60.392535
1753714127187,60.407275
1753714127222,60.495023
1753714127255,60.739979
1753714127292,60.926048
1753714127320,61.03543
1753714127358,61.18004
1753714127390,61.394957
1753714127422,61.531143
1753714127456,61.52475
1753714127487,61.195841
1753714127528,60.722882
1753714127555,60.174233
1753714127585,60.03362
1753714127621,60.067709
1753714127654,59.974407
1753714127694,60.0478
1753714127726,60.276747
1753714127768,60.345679
1753714127796,60.423981
1753714127826,60.480016
1753714127866,60.424886
1753714127897,60.401923
1753714127924,60.42469
1753714127957,60.458108
1753714127990,60.587094
1753714128030,60.729354
1753714128058,60.870019
1753714128088,60.955436
1753714128120,61.189637
1753714128155,61.415361
1753714128190,61.335315
1753714128224,60.780669
1753714128258,60.185216
1753714128289,59.96776
1753714128321,59.953444
1753714128352,59.864576
1753714128382,59.871503
1753714128421,59.865396
1753714128462,59.966601
1753714128493,60.03918
1753714128531,60.029733
1753714128565,60.082618
1753714128590,60.092631
1753714128630,60.141772
1753714128655,60.204721
1753714128691,60.21493
1753714128722,60.294188
1753714128754,60.456598
1753714128780,60.709321
1753714128813,60.897369
1753714128849,60.948392
1753714128881,60.913652
1753714128920,60.43775
1753714128953,59.921276
1753714128983,59.67701
1753714129013,59.627856
1753714129047,59.734445
1753714129093,59.811529
1753714129127,59.930585
1753714129156,60.172605
1753714129184,60.150554
1753714129231,60.161004
1753714129262,60.06864
1753714129292,60.060801
1753714129325,60.262508
1753714129359,60.277261
1753714129393,60.455283
1753714129424,60.54139
1753714129459,60.750832
1753714129486,60.901966
1753714129518,60.963203
1753714129555,60.918046
1753714129589,60.537113
1753714129623,60.089727
1753714129656,59.76479
1753714129692,59.74742
1753714129730,59.713371
1753714129763,59.75884
1753714129783,59.877922
1753714129823,59.960449
1753714129855,60.186173
1753714129888,60.237404
1753714129920,60.213615
1753714129950,60.143354
1753714129988,60.128425
1753714130026,60.254865
1753714130053,60.34342
1753714130089,60.377991
1753714130121,60.636
1753714130154,60.822447
1753714130194,60.931451
1753714130235,61.05099
1753714130259,61.076797
1753714130289,60.669737
1753714130324,60.113796
1753714130353,59.834328
1753714130385,59.84774
1753714130423,59.805161
1753714130455,59.82994
1753714130491,59.832584
1753714130518,59.946159
1753714130557,60.127709
1753714130591,60.051042
1753714130620,60.034714
1753714130652,59.999382
1753714130687,59.979023
1753714130719,60.017813
1753714130758,60.079473
1753714130788,60.255998
1753714130823,60.358056
1753714130852,60.508024
1753714130886,60.741919
1753714130926,60.80149
1753714130958,60.757928
1753714130986,60.504085
1753714131022,60.106648
1753714131055,59.830403
1753714131094,59.799478
1753714131126,59.79565
1753714131155,59.879036
1753714131186,59.923984
1753714131224,60.255256
1753714131253,60.259331
1753714131287,60.206551
1753714131322,60.344325
1753714131352,60.311525
1753714131391,60.411871
1753714131426,60.390178
1753714131456,60.580284
1753714131489,60.735181
1753714131526,60.869491
1753714131556,60.940937
1753714131587,61.054733
1753714131618,61.202176
1753714131655,61.067474
1753714131688,60.562165
1753714131719,60.254286
1753714131756,59.973008
1753714131785,59.882994
1753714131824,59.865924
1753714131854,59.896575
1753714131886,60.143562
1753714131923,60.122026
1753714131958,60.180353
1753714131988,60.225848
1753714132030,60.3176
1753714132054,60.271362
1753714132091,60.270529
1753714132119,60.350256
1753714132161,60.583877
1753714132191,60.739894
1753714132222,60.828052
1753714132253,60.991999
1753714132290,61.099923
1753714132319,61.254266
1753714132354,61.342619
1753714132388,61.175047
1753714132419,60.686326
1753714132455,60.204813
1753714132488,59.906679
1753714132520,59.704184
1753714132555,59.795279
1753714132586,59.728436
1753714132625,59.837017
1753714132657,60.04418
1753714132686,60.094284
1753714132730,60.173276
1753714132759,60.119916
1753714132787,60.14685
1753714132824,60.126173
1753714132854,60.134793
1753714132894,60.151603
1753714132924,60.240334
1753714132958,60.377665
1753714132991,60.489033
1753714133023,60.649848
1753714133055,60.688637
1753714133091,60.744478
1753714133122,60.754536
1753714133154,60.57626
1753714133188,60.127729
1753714133224,59.66044
1753714133254,59.577308
1753714133295,59.509085
1753714133324,59.604763
1753714133353,59.681124
1753714133389,59.705942
1753714133427,59.92498
1753714133461,59.946634
1753714133491,59.96595
1753714133527,60.019961
1753714133557,59.976263
1753714133589,60.010736
1753714133621,60.197775
1753714133655,60.374605
1753714133690,60.581371
1753714133721,60.738807
1753714133752,60.842981
1753714133794,61.023431
1753714133825,60.982656
1753714133857,60.555036
1753714133891,60.155489
1753714133919,59.879153
1753714133953,59.894524
1753714133987,59.883404
1753714134023,59.949648
1753714134052,60.231772
1753714134091,60.338655
1753714134119,60.38568
1753714134151,60.509893
1753714134187,60.522015
1753714134221,60.541273
1753714134256,60.568103
1753714134289,60.628246
1753714134324,60.720929
1753714134359,60.838853
1753714134394,60.90136
1753714134422,61.028008
1753714134456,61.234507
1753714134493,61.366038
1753714134523,61.433623
1753714134559,61.363199
1753714134591,60.887727
1753714134622,60.025664
1753714134657,59.685454
1753714134689,59.564359
1753714134729,59.75854
1753714134765,60.171381
1753714134789,60.506774
1753714134826,60.734243
1753714134857,60.879687
1753714134889,60.854016
1753714134919,60.843046
1753714134953,60.713455
1753714134992,60.659887
1753714135022,60.659568
1753714135055,60.644946
1753714135087,60.743683
1753714135123,60.850989
1753714135153,61.041393
1753714135192,61.166726
1753714135221,61.218751
1753714135256,61.212658
1753714135291,60.954733
1753714135321,60.210789
1753714135356,59.638442
1753714135390,59.585043
1753714135427,59.767271
1753714135457,60.05125
1753714135490,60.299969
1753714135519,60.40303
1753714135553,60.701782
1753714135589,60.572081
1753714135626,60.516384
1753714135655,60.428564
1753714135692,60.199839
1753714135717,60.310009
1753714135755,60.306324
1753714135794,60.375712
1753714135828,60.5221
1753714135860,60.605648
1753714135892,60.739451
1753714135923,60.764341
1753714135955,60.717902
1753714135987,60.216837
1753714136023,59.660154
1753714136058,59.37997
1753714136095,59.294878
1753714136138,59.374768
1753714136160,59.446155
1753714136190,59.552842
1753714136223,59.8358
1753714136254,59.929889
1753714136287,59.995547
1753714136319,59.793846
1753714136354,59.816932
1753714136389,59.952415
1753714136430,59.925664
1753714136462,60.068633
1753714136490,60.142182
1753714136530,60.371747
1753714136564,60.537425
1753714136590,60.633266
1753714136624,60.742798
1753714136653,60.872929
1753714136687,60.668051
1753714136719,60.048119
1753714136752,59.644555
1753714136791,59.410862
1753714136826,59.417353
1753714136857,59.52863
1753714136889,59.609125
1753714136925,59.652993
1753714136957,59.970527
1753714136991,59.949375
1753714137031,59.970553
1753714137067,59.964674
1753714137104,59.925924
1753714137130,59.951204
1753714137164,60.018685
1753714137196,60.111778
1753714137228,60.351369
1753714137256,60.425804
1753714137285,60.547738
1753714137322,60.597328
1753714137356,60.780558
1753714137386,60.876073
1753714137419,60.565915
1753714137456,59.907617
1753714137491,59.397854
1753714137533,59.317131
1753714137561,59.303251
1753714137591,59.337919
1753714137624,59.487021
1753714137662,59.659041
1753714137688,59.899251
1753714137723,59.85011
1753714137758,59.819146
1753714137795,59.732368
1753714137819,59.692915
1753714137858,59.891842
1753714137894,60.005026
1753714137920,60.14045
1753714137953,60.196466
1753714137987,60.425237
1753714138029,60.603858
1753714138058,60.739959
1753714138086,60.909726
1753714138123,60.752681
1753714138159,60.166179
1753714138195,59.719751
1753714138233,59.505739
1753714138267,59.549294
1753714138300,59.561
1753714138334,59.666085
1753714138368,59.731346
1753714138401,59.991263
1753714138433,60.141192
1753714138469,60.134434
1753714138495,60.109441
1753714138530,60.0328
1753714138567,60.107299
1753714138598,60.081661
1753714138635,60.283778
1753714138670,60.464762
1753714138699,60.627914
1753714138731,60.698885
1753714138765,60.922389
1753714138795,61.073757
1753714138828,61.123022
1753714138853,60.791138
1753714138889,59.942285
1753714138922,59.26603
1753714138958,59.060215
1753714138987,59.302899
1753714139024,59.733546
1753714139055,60.119382
1753714139089,60.57126
1753714139120,60.862447
1753714139155,60.960488
1753714139185,61.001523
1753714139224,60.84675
1753714139257,60.732954
1753714139288,60.661183
1753714139324,60.68604
1753714139355,60.807648
1753714139386,60.84703
1753714139423,60.928066
1753714139451,61.071713
1753714139496,61.137045
1753714139523,61.181271
1753714139555,61.24269
1753714139593,61.409632
1753714139622,60.981107
1753714139655,60.343479
1753714139694,59.788098
1753714139724,59.646573
1753714139759,59.663292
1753714139790,59.74602
1753714139819,59.811796
1753714139851,59.851959
1753714139889,59.898684
1753714139922,60.110307
1753714139954,60.145086
1753714139989,60.061316
1753714140023,60.13948
1753714140052,60.170737
1753714140088,60.238608
1753714140117,60.350198
1753714140152,60.427412
1753714140186,60.575277
1753714140219,60.806945
1753714140255,60.973118
1753714140288,60.93955
1753714140322,61.012682
1753714140353,60.421181
1753714140386,59.917682
1753714140422,59.688357
1753714140451,59.528871
1753714140492,59.719497
1753714140520,59.795057
1753714140553,59.947018
1753714140586,60.065183
1753714140620,60.252801
1753714140653,60.221649
1753714140688,60.202508
1753714140724,60.184389
1753714140756,60.21629
1753714140789,60.263719
1753714140823,60.354299
1753714140855,60.491019
1753714140893,60.624952
1753714140923,60.855657
1753714140954,60.93052
1753714140992,61.016914
1753714141022,61.2356
1753714141055,60.547666
1753714141087,59.655095
1753714141121,59.345738
1753714141156,59.1745
1753714141188,59.526807
1753714141222,59.925774
1753714141253,60.267378
1753714141295,60.577061
1753714141322,60.855605
1753714141357,60.837447
1753714141386,60.775584
1753714141421,60.723351
1753714141457,60.641143
1753714141491,60.597523
1753714141526,60.660746
1753714141556,60.756782
1753714141591,60.955716
1753714141623,61.064753
1753714141654,61.134122
1753714141690,61.233055
1753714141726,61.521638
1753714141755,61.533571
1753714141791,61.363075
1753714141821,60.790546
1753714141856,59.980989
1753714141889,59.517302
1753714141928,59.453935
1753714141963,59.655258
1753714141995,60.064108
1753714142024,60.398674
1753714142057,60.603617
1753714142089,60.842408
1753714142122,60.782036
1753714142156,60.677589
1753714142188,60.540043
1753714142223,60.429593
1753714142253,60.37887
1753714142287,60.565238
1753714142318,60.659633
1753714142351,60.674373
1753714142383,60.750291
1753714142419,60.879524
1753714142454,60.918352
1753714142491,60.945312
1753714142526,61.049466
1753714142559,60.543389
1753714142590,59.933203
1753714142624,59.51861
1753714142662,59.464476
1753714142689,59.468167
1753714142722,59.579164
1753714142752,59.706593
1753714142785,59.734009
1753714142824,59.989915
1753714142861,60.01582
1753714142899,60.019349
1753714142928,60.049284
1753714142959,60.00041
1753714142990,60.046647
1753714143028,60.121082
1753714143057,60.203413
1753714143091,60.341545
1753714143122,60.554802
1753714143154,60.704647
1753714143187,60.721229
1753714143224,60.905423
1753714143256,60.503467
1753714143293,59.879068
1753714143329,59.48805
1753714143363,59.413375
1753714143392,59.405797
1753714143420,59.583259
1753714143455,59.524515
1753714143487,59.626606
1753714143522,59.762726
1753714143553,59.907285
1753714143589,59.883723
1753714143626,59.889394
1753714143664,59.94694
1753714143698,60.011276
1753714143727,60.121003
1753714143761,60.265106
1753714143792,60.404482
1753714143821,60.624835
1753714143855,60.697537
1753714143890,60.79009
1753714143923,61.096921
1753714143954,61.139519
1753714143993,61.052969
1753714144028,60.455472
1753714144060,59.918535
1753714144090,59.636007
1753714144128,59.564639
1753714144162,59.574542
1753714144191,59.640199
1753714144224,59.767394
1753714144258,59.868
1753714144288,60.027207
1753714144322,60.023249
1753714144355,59.999017
1753714144382,59.948548
1753714144424,59.871562
1753714144457,59.861067
1753714144490,59.914225
1753714144522,60.002839
1753714144556,60.201785
1753714144595,60.355165
1753714144622,60.546299
1753714144652,60.674549
1753714144687,60.709425
1753714144722,60.510003
1753714144757,60.152683
1753714144790,59.718527
1753714144822,59.400387
1753714144857,59.405758
1753714144892,59.518206
1753714144924,59.532829
1753714144958,59.779614
1753714144993,59.916653
1753714145020,60.075261
1753714145049,60.049226
1753714145093,60.102429
1753714145130,60.058282
1753714145162,60.077885
1753714145190,60.166375
1753714145229,60.24271
1753714145258,60.37245
1753714145291,60.58266
1753714145324,60.739106
1753714145356,60.823026
1753714145386,60.988672
1753714145419,60.764041
1753714145455,60.249298
1753714145491,59.816132
1753714145531,59.617511
1753714145557,59.510908
1753714145584,59.592628
1753714145627,59.667342
1753714145662,59.709699
1753714145697,60.001133
1753714145720,60.153666
1753714145753,60.145632
1753714145794,60.213517
1753714145824,60.223901
1753714145853,60.211343
1753714145887,60.18323
1753714145925,60.342144
1753714145960,60.51501
1753714145993,60.602009
1753714146026,60.628572
1753714146054,60.690838
1753714146091,60.855774
1753714146127,61.123276
1753714146161,60.988952
1753714146196,60.566983
1753714146219,60.020814
1753714146251,59.51764
1753714146291,59.518916
1753714146324,59.517744
1753714146359,59.553884
1753714146393,59.627074
1753714146431,59.678937
1753714146461,59.843189
1753714146493,59.872935
1753714146519,59.775363
1753714146556,59.724354
1753714146593,59.677374
1753714146630,59.754399
1753714146654,59.882278
1753714146690,60.011048
1753714146727,60.086205
1753714146756,60.2473
1753714146786,60.425719
1753714146820,60.562582
1753714146851,60.605082
1753714146888,60.405445
1753714146927,60.068861
1753714146961,59.628227
1753714146987,59.291415
1753714147017,59.313843
1753714147052,59.405621
1753714147095,59.565121
1753714147130,59.543142
1753714147166,59.678195
1753714147192,59.852746
1753714147225,59.803638
1753714147256,59.770396
1753714147290,59.779263
1753714147322,59.787674
1753714147355,59.921861
1753714147386,60.019017
1753714147418,60.075853
1753714147452,60.218074
1753714147490,60.439703
1753714147524,60.599132
1753714147555,60.579639
1753714147590,60.732576
1753714147620,60.212781
1753714147655,59.699822
1753714147687,59.415693
1753714147722,59.29062
1753714147756,59.34661
1753714147785,59.577028
1753714147818,59.544951
1753714147852,59.563982
1753714147884,59.804348
1753714147917,59.89289
1753714147954,59.813716
1753714147987,59.82466
1753714148024,59.865767
1753714148057,59.914648
1753714148089,60.006439
1753714148126,60.150007
1753714148153,60.287404
1753714148187,60.502966
1753714148221,60.661365
1753714148254,60.648539
1753714148294,60.9533
1753714148325,60.977116
1753714148357,60.807902
1753714148386,60.165014
1753714148419,59.760734
1753714148455,59.531559
1753714148489,59.40219
1753714148522,59.423955
1753714148552,59.49262
1753714148587,59.601371
1753714148621,59.677498
1753714148654,59.854589
1753714148690,60.000794
1753714148722,59.863046
1753714148756,59.82356
1753714148788,59.772609
1753714148820,59.778723
1753714148855,59.903932
1753714148889,59.987233
1753714148928,60.126375
1753714148953,60.225314
1753714148991,60.390803
1753714149022,60.500921
1753714149057,60.536058
1753714149085,60.469157
1753714149119,60.306285
1753714149153,59.764621
1753714149187,59.334599
1753714149222,59.1856
1753714149254,59.166147
1753714149296,59.271642
1753714149323,59.367476
1753714149359,59.424879
1753714149386,59.596163
1753714149424,59.794445
1753714149454,59.746991
1753714149490,59.722674
1753714149526,59.763091
1753714149566,59.876985
1753714149588,59.958483
1753714149618,60.00071
1753714149655,60.132716
1753714149689,60.346493
1753714149725,60.51055
1753714149755,60.591644
1753714149787,60.601176
1753714149817,60.438571
1753714149854,59.776268
1753714149889,59.357131
1753714149926,59.295458
1753714149956,59.298758
1753714149984,59.478747
1753714150020,59.431429
1753714150051,59.627569
1753714150086,59.710747
1753714150118,59.836503
1753714150156,59.811685
1753714150196,59.833443
1753714150228,59.843664
1753714150257,59.87968
1753714150288,59.947142
1753714150319,60.08476
1753714150356,60.229142
1753714150384,60.441995
1753714150421,60.608018
1753714150455,60.69518
1753714150488,60.890051
1753714150521,60.920195
1753714150558,60.770168
1753714150589,60.124864
1753714150620,59.697322
1753714150654,59.456175
1753714150691,59.302346
1753714150718,59.381109
1753714150752,59.447796
1753714150781,59.562523
1753714150818,59.73175
1753714150853,59.936269
1753714150894,59.938033
1753714150926,59.85649
1753714150960,59.813534
1753714150991,59.82813
1753714151024,59.841698
1753714151053,59.884146
1753714151085,59.952923
1753714151121,60.09961
1753714151156,60.245692
1753714151193,60.40318
1753714151226,60.486084
1753714151256,60.452282
1753714151288,60.164044
1753714151322,59.662914
1753714151363,59.30562
1753714151390,59.088171
1753714151424,59.03472
1753714151458,59.025755
1753714151487,59.102748
1753714151523,59.336311
1753714151555,59.435634
1753714151593,59.588083
1753714151622,59.650772
1753714151657,59.577758
1753714151692,59.574769
1753714151720,59.681092
1753714151758,59.752811
1753714151788,59.868033
1753714151828,59.945442
1753714151857,60.095958
1753714151892,60.324019
1753714151922,60.476097
1753714151957,60.503773
1753714151989,60.345966
1753714152023,59.8108
1753714152057,59.255522
1753714152092,59.227215
1753714152121,59.134968
1753714152156,59.188654
1753714152191,59.257612
1753714152225,59.432366
1753714152253,59.515557
1753714152295,59.656782
1753714152330,59.717264
1753714152363,59.660343
1753714152393,59.671775
1753714152430,59.787987
1753714152460,59.860123
1753714152492,59.970325
1753714152526,60.02082
1753714152556,60.136785
1753714152592,60.331968
1753714152629,60.467308
1753714152662,60.522542
1753714152698,60.425595
1753714152734,60.132839
1753714152761,59.580909
1753714152790,59.185529
1753714152822,59.031237
1753714152856,59.171355
1753714152894,59.225998
1753714152924,59.33592
1753714152956,59.518011
1753714152989,59.618656
1753714153019,59.736177
1753714153052,59.616553
1753714153087,59.597387
1753714153120,59.672843
1753714153152,59.715805
1753714153188,59.810474
1753714153231,59.932877
1753714153257,60.009284
1753714153283,60.149617
1753714153321,60.352287
1753714153356,60.465335
1753714153386,60.497679
1753714153430,60.472099
1753714153462,60.425784
1753714153492,59.885722
1753714153522,59.189044
1753714153549,58.96028
1753714153587,58.931829
1753714153624,58.864524
1753714153660,58.91968
1753714153691,59.089239
1753714153729,59.209494
1753714153756,59.214448
1753714153789,59.197586
1753714153818,59.216056
1753714153853,59.192573
1753714153889,59.171948
1753714153922,59.133412
1753714153956,59.187944
1753714153990,59.419508
1753714154032,59.659594
1753714154066,59.860338
1753714154108,59.980006
1753714154126,60.231571
1753714154158,60.307456
1753714154203,59.897343
1753714154238,59.39982
1753714154266,59.182091
1753714154315,58.957265
1753714154335,59.000397
1753714154370,58.932819
1753714154406,59.107071
1753714154446,59.286948
1753714154471,59.481266
1753714154491,59.533819
1753714154529,59.556807
1753714154564,59.547445
1753714154595,59.515674
1753714154639,59.546006
1753714154674,59.672706
1753714154707,59.788449
1753714154734,59.870787
1753714154766,60.025814
1753714154811,60.258654
1753714154848,60.419046
1753714154882,60.313505
1753714154915,60.17573
1753714154948,59.501077
1753714154970,59.166075
1753714155002,59.113953
1753714155031,59.027266
1753714155062,59.099857
1753714155092,59.25995
1753714155121,59.262651
1753714155151,59.286363
1753714155185,59.522458
1753714155220,59.603044
1753714155254,59.569984
1753714155294,59.640597
1753714155327,59.671495
1753714155356,59.754139
1753714155388,59.876308
1753714155432,59.940748
1753714155452,60.074616
1753714155486,60.242879
1753714155525,60.276987
1753714155555,60.316779
1753714155591,60.531299
1753714155618,60.467874
1753714155651,59.946523
1753714155682,59.229207
1753714155714,58.811399
1753714155749,58.583689
1753714155779,58.498916
1753714155811,58.466878
1753714155846,58.519307
1753714155880,58.733885
1753714155913,58.885794
1753714155946,59.0328
1753714155981,59.025235
1753714156018,59.014876
1753714156051,58.998105
1753714156086,59.014356
1753714156117,58.975312
1753714156153,59.128113
1753714156186,59.253022
1753714156217,59.379039
1753714156261,59.530043
1753714156292,59.746027
1753714156322,59.823736
1753714156353,59.641912
1753714156383,58.972969
1753714156420,58.164682
1753714156454,58.006543
1753714156487,58.107585
1753714156516,58.416096
1753714156552,58.739477
1753714156585,58.960755
1753714156614,59.062989
1753714156649,59.151863
1753714156683,59.022793
1753714156718,58.876796
1753714156750,58.737427
1753714156781,58.684458
1753714156820,58.780318
1753714156852,58.862629
1753714156885,59.050547
1753714156919,59.197378
1753714156951,59.277346
1753714156986,59.363127
1753714157019,59.527067
1753714157054,59.245151
1753714157088,58.346832
1753714157121,57.747616
1753714157155,57.633129
1753714157191,57.724627
1753714157220,58.066797
1753714157254,58.386246
1753714157288,58.583415
1753714157321,58.841978
1753714157354,58.953431
1753714157387,58.923912
1753714157419,58.869172
1753714157448,58.806027
1753714157482,58.784322
1753714157517,58.864407
1753714157551,59.096505
1753714157588,59.323316
1753714157621,59.466702
1753714157654,59.588402
1753714157685,59.857955
1753714157719,59.855884
1753714157751,59.949368
1753714157783,59.892532
1753714157818,59.471865
1753714157850,58.62671
1753714157883,58.318381
1753714157918,58.370627
1753714157953,58.544457
1753714157986,58.9672
1753714158019,59.326278
1753714158049,59.610766
1753714158084,59.847265
1753714158118,60.076732
1753714158153,60.053672
1753714158185,60.077155
1753714158219,60.088321
1753714158251,60.169025
1753714158285,60.289045
1753714158319,60.271603
1753714158350,60.493297
1753714158386,60.62296
1753714158418,60.616606
1753714158452,60.67492
1753714158484,60.644854
1753714158515,60.675402
1753714158547,60.683032
1753714158579,60.234188
1753714158618,59.80121
1753714158651,59.504261
1753714158685,59.441364
1753714158719,59.541957
1753714158752,59.642166
1753714158783,59.695363
1753714158813,59.834862
1753714158848,60.018346
1753714158878,59.998789
1753714158917,59.901712
1753714158949,59.87384
1753714158982,60.013542
1753714159012,60.057409
1753714159047,60.148373
1753714159079,60.214168
1753714159112,60.495348
1753714159143,60.574014
1753714159179,60.710141
1753714159218,60.772114
1753714159251,60.393505
1753714159290,59.443004
1753714159319,58.835624
1753714159350,58.683305
1753714159378,58.803553
1753714159417,59.014401
1753714159451,59.294813
1753714159485,59.559646
1753714159518,59.771483
1753714159550,59.955514
1753714159584,59.993587
1753714159616,59.870403
1753714159645,59.650616
1753714159685,59.67477
1753714159717,59.708384
1753714159751,59.780591
1753714159784,59.902161
1753714159818,59.934817
1753714159847,60.126485
1753714159885,60.137188
1753714159916,60.176746
1753714159949,60.286903
1753714159982,60.492679
1753714160016,60.229305
1753714160046,59.663741
1753714160086,59.308068
1753714160118,59.229396
1753714160151,59.210106
1753714160183,59.216551
1753714160219,59.302749
1753714160251,59.404495
1753714160279,59.596853
1753714160318,59.715838
1753714160345,59.716808
1753714160381,59.672784
1753714160415,59.843371
1753714160448,59.790943
