time,ecg,peak
1757168809154.1455,91,0
1757168809161.838,68,0
1757168809169.5303,75,0
1757168809177.2227,85,0
1757168809184.915,75,0
1757168809192.6074,71,0
1757168809200.2998,78,0
1757168809207.9922,78,0
1757168809215.6846,73,0
1757168809223.377,66,0
1757168809231.0693,66,0
1757168809238.7617,64,0
1757168809246.454,52,0
1757168809254.1465,55,0
1757168809261.8389,64,0
1757168809269.5312,71,0
1757168809277.2236,75,0
1757168809284.916,71,0
1757168809292.6084,52,0
1757168809300.3008,48,0
1757168809307.9932,52,0
1757168809315.6855,50,0
1757168809323.378,45,0
1757168809331.0703,45,0
1757168809338.7627,39,0
1757168809346.455,25,0
1757168809354.1475,20,0
1757168809361.8398,22,0
1757168809369.5322,20,0
1757168809377.2246,22,0
1757168809384.917,18,0
1757168809392.6094,2,0
1757168809400.3018,0,0
1757168809407.9941,16,0
1757168809415.6865,16,0
1757168809423.379,0,0
1757168809431.0713,-13,0
1757168809438.7637,-11,0
1757168809446.456,-4,0
1757168809454.1484,-6,0
1757168809461.8408,-9,0
1757168809448.978,-18,0
1757168809456.6704,-29,0
1757168809464.3628,-27,0
1757168809472.0552,-29,0
1757168809479.7476,-59,0
1757168809487.44,-80,0
1757168809495.1323,-78,0
1757168809502.8247,-89,0
1757168809510.517,-101,0
1757168809518.2095,-103,0
1757168809525.9019,-117,0
1757168809533.5942,-144,0
1757168809541.2866,-172,0
1757168809548.979,-179,0
1757168809556.6714,-179,0
1757168809564.3638,-202,0
1757168809572.0562,-225,0
1757168809579.7485,-220,0
1757168809587.441,-234,0
1757168809595.1333,-273,0
1757168809602.8257,-285,0
1757168809610.518,-278,0
1757168809618.2104,-296,0
1757168809625.9028,-319,0
1757168809633.5952,-326,0
1757168809641.2876,-333,0
1757168809648.98,-324,0
1757168809656.6724,-303,0
1757168809664.3647,-301,0
1757168809672.0571,-308,0
1757168809679.7495,-312,0
1757168809687.442,-328,0
1757168809695.1343,-337,0
1757168809702.8267,-337,0
1757168809710.519,-337,0
1757168809718.2114,-347,0
1757168809725.9038,-351,0
1757168809733.5962,-349,0
1757168809741.2886,-365,0
1757168809748.981,-411,0
1757168809756.6733,-363,0
1757168809764.3657,16,0
1757168809772.058,675,0
1757168809779.7505,1227,0
1757168809787.4429,1142,0
1757168809795.1353,193,0
1757168809802.8276,-664,0
1757168809810.52,-549,0
1757168809818.2124,-282,0
1757168809825.9048,-432,0
1757168809833.5972,-471,0
1757168809841.2896,-358,0
1757168809848.982,-374,0
1757168809856.6743,-390,0
1757168809864.3667,-344,0
1757168809872.059,-337,0
1757168809879.7515,-333,0
1757168809887.4438,-294,0
1757168809895.1362,-273,0
1757168809902.8286,-268,0
1757168809910.521,-248,0
1757168809918.2134,-225,0
1757168809925.9058,-204,0
1757168809933.5981,-179,0
1757168809941.2905,-156,0
1757168809948.983,-131,0
1757168809956.6753,-108,0
1757168809964.3677,-87,0
1757168809972.06,-62,0
1757168809979.7524,-48,0
1757168809987.4448,-52,0
1757168809995.1372,-50,0
1757168810002.8296,-52,0
1757168809987.865,-71,0
1757168809995.5574,-89,0
1757168810003.2498,-112,0
1757168810010.9421,-147,0
1757168810018.6345,-190,0
1757168810026.327,-225,0
1757168810034.0193,-245,0
1757168810041.7117,-255,0
1757168810049.404,-264,0
1757168810057.0964,-285,0
1757168810064.7888,-298,0
1757168810072.4812,-275,0
1757168810080.1736,-255,0
1757168810087.866,-252,0
1757168810095.5583,-239,0
1757168810103.2507,-227,0
1757168810110.943,-223,0
1757168810118.6355,-213,0
1757168810126.328,-204,0
1757168810134.0203,-195,0
1757168810141.7126,-188,0
1757168810149.405,-183,0
1757168810157.0974,-179,0
1757168810164.7898,-172,0
1757168810172.4822,-165,0
1757168810180.1746,-158,0
1757168810187.867,-156,0
1757168810195.5593,-156,0
1757168810203.2517,-149,0
1757168810210.944,-144,0
1757168810218.6365,-147,0
1757168810226.3289,-144,0
1757168810234.0212,-142,0
1757168810241.7136,-144,0
1757168810249.406,-142,0
1757168810257.0984,-137,0
1757168810264.7908,-140,0
1757168810272.4832,-137,0
1757168810280.1755,-133,0
1757168810287.868,-133,0
1757168810295.5603,-133,0
1757168810303.2527,-131,0
1757168810310.945,-128,0
1757168810318.6375,-124,0
1757168810326.3298,-124,0
1757168810334.0222,-121,0
1757168810341.7146,-114,0
1757168810349.407,-117,0
1757168810357.0994,-119,0
1757168810364.7917,-114,0
1757168810372.4841,-108,0
1757168810380.1765,-108,0
1757168810387.869,-108,0
1757168810395.5613,-105,0
1757168810403.2537,-105,0
1757168810410.946,-101,0
1757168810418.6384,-98,0
1757168810426.3308,-98,0
1757168810434.0232,-94,0
1757168810441.7156,-91,0
1757168810449.408,-94,0
1757168810457.1003,-89,0
1757168810464.7927,-94,0
1757168810472.485,-105,0
1757168810480.1775,-98,0
1757168810487.8699,-89,0
1757168810495.5623,-85,0
1757168810503.2546,-80,0
1757168810510.947,-80,0
1757168810518.6394,-82,0
1757168810526.3318,-78,0
1757168810534.0242,-75,0
1757168810541.7166,-73,0
1757168810527.7566,-64,0
1757168810535.449,-52,0
1757168810543.1414,-41,0
1757168810550.8337,-36,0
1757168810558.5261,-34,0
1757168810566.2185,-41,0
1757168810573.911,-68,0
1757168810581.6033,-96,0
1757168810589.2957,-87,0
1757168810596.988,-66,0
1757168810604.6804,-68,0
1757168810612.3728,-78,0
1757168810620.0652,-98,0
1757168810627.7576,-156,0
1757168810635.45,-131,0
1757168810643.1423,223,0
1757168810650.8347,878,0
1757168810658.527,1457,0
1757168810666.2195,1434,0
1757168810673.9119,505,0
1757168810681.6042,-441,0
1757168810689.2966,-388,0
1757168810696.989,-62,0
1757168810704.6814,-183,0
1757168810712.3738,-259,0
1757168810720.0662,-151,0
1757168810727.7585,-151,0
1757168810735.451,-188,0
1757168810743.1433,-151,0
1757168810750.8357,-128,0
1757168810758.528,-131,0
1757168810766.2205,-112,0
1757168810773.9128,-89,0
1757168810781.6052,-75,0
1757168810789.2976,-62,0
1757168810796.99,-45,0
1757168810804.6824,-29,0
1757168810812.3748,-11,0
1757168810820.0671,11,0
1757168810827.7595,36,0
1757168810835.452,55,0
1757168810843.1443,68,0
1757168810850.8367,91,0
1757168810858.529,110,0
1757168810866.2214,117,0
1757168810873.9138,112,0
1757168810881.6062,96,0
1757168810889.2986,68,0
1757168810896.991,34,0
1757168810904.6833,4,0
1757168810912.3757,-34,0
1757168810920.068,-82,0
1757168810927.7605,-128,0
1757168810935.453,-160,0
1757168810943.1453,-183,0
1757168810950.8376,-206,0
1757168810958.53,-209,0
1757168810966.2224,-197,0
1757168810973.9148,-193,0
1757168810981.6072,-195,0
1757168810989.2996,-190,0
1757168810996.992,-179,0
1757168811004.6843,-170,0
1757168811012.3767,-163,0
1757168811020.069,-160,0
1757168811027.7615,-158,0
1757168811035.4539,-149,0
1757168811043.1462,-137,0
1757168811050.8386,-131,0
1757168811058.531,-126,0
1757168811066.2234,-126,0
1757168811073.9158,-126,0
1757168811081.6082,-119,0
1757168811112.8428,-112,0
1757168811120.5352,-112,0
1757168811128.2275,-114,0
1757168811135.92,-124,0
1757168811143.6123,-144,0
1757168811151.3047,-142,0
1757168811158.997,-124,0
1757168811166.6895,-117,0
1757168811174.3818,-121,0
1757168811182.0742,-124,0
1757168811189.7666,-124,0
1757168811197.459,-117,0
1757168811205.1514,-110,0
1757168811212.8438,-112,0
1757168811220.5361,-112,0
1757168811228.2285,-112,0
1757168811235.921,-117,0
1757168811243.6133,-112,0
1757168811251.3057,-108,0
1757168811258.998,-105,0
1757168811266.6904,-105,0
1757168811274.3828,-108,0
1757168811282.0752,-110,0
1757168811289.7676,-105,0
1757168811297.46,-98,0
1757168811305.1523,-98,0
1757168811312.8447,-103,0
1757168811320.537,-103,0
1757168811328.2295,-103,0
1757168811335.9219,-96,0
1757168811343.6143,-94,0
1757168811351.3066,-94,0
1757168811358.999,-94,0
1757168811366.6914,-94,0
1757168811374.3838,-98,0
1757168811382.0762,-94,0
1757168811389.7686,-87,0
1757168811397.461,-85,0
1757168811405.1533,-85,0
1757168811412.8457,-89,0
1757168811420.538,-89,0
1757168811428.2305,-80,0
1757168811435.9229,-64,0
1757168811443.6152,-50,0
1757168811451.3076,-48,0
1757168811459.0,-48,0
1757168811466.6924,-50,0
1757168811474.3848,-68,0
1757168811482.0771,-91,0
1757168811489.7695,-96,0
1757168811497.462,-87,0
1757168811505.1543,-85,0
1757168811512.8467,-85,0
1757168811520.539,-91,0
1757168811528.2314,-147,0
1757168811535.9238,-174,0
1757168811543.6162,73,0
1757168811551.3086,673,0
1757168811559.001,1321,0
1757168811566.6934,1535,0
1757168811574.3857,850,0
1757168811582.0781,-234,0
1757168811589.7705,-485,0
1757168811597.463,-124,0
1757168811605.1553,-135,0
1757168811612.8477,-285,0
1757168811620.54,-197,0
1757168811628.2324,-154,0
1757168811635.9248,-195,0
1757168811643.6172,-172,0
1757168811651.3096,-137,0
1757168811659.002,-137,0
1757168811666.6943,-124,0
1757168811787.808,-98,0
1757168811795.5005,-94,0
1757168811803.1929,-82,0
1757168811810.8853,-59,0
1757168811818.5776,-39,0
1757168811826.27,-20,0
1757168811833.9624,0,0
1757168811841.6548,9,0
1757168811849.3472,27,0
1757168811857.0396,59,0
1757168811864.732,89,0
1757168811872.4243,108,0
1757168811880.1167,114,0
1757168811887.809,114,0
1757168811895.5015,101,0
1757168811903.1938,80,0
1757168811910.8862,55,0
1757168811918.5786,25,0
1757168811926.271,-16,0
1757168811933.9634,-62,0
1757168811941.6558,-105,0
1757168811949.3481,-131,0
1757168811957.0405,-147,0
1757168811964.733,-156,0
1757168811972.4253,-165,0
1757168811980.1177,-170,0
1757168811987.81,-165,0
1757168811995.5024,-160,0
1757168812003.1948,-158,0
1757168812010.8872,-151,0
1757168812018.5796,-147,0
1757168812026.272,-144,0
1757168812033.9644,-137,0
1757168812041.6567,-131,0
1757168812049.349,-126,0
1757168812057.0415,-121,0
1757168812064.734,-117,0
1757168812072.4263,-112,0
1757168812080.1187,-108,0
1757168812087.811,-103,0
1757168812095.5034,-103,0
1757168812103.1958,-108,0
1757168812110.8882,-110,0
1757168812118.5806,-101,0
1757168812126.273,-91,0
1757168812133.9653,-91,0
1757168812141.6577,-91,0
1757168812149.35,-87,0
1757168812157.0425,-91,0
1757168812164.7349,-91,0
1757168812172.4272,-87,0
1757168812180.1196,-87,0
1757168812187.812,-87,0
1757168812195.5044,-85,0
1757168812203.1968,-85,0
1757168812210.8892,-85,0
1757168812218.5815,-82,0
1757168812226.274,-80,0
1757168812233.9663,-78,0
1757168812241.6587,-78,0
1757168812249.351,-78,0
1757168812257.0435,-73,0
1757168812264.7358,-71,0
1757168812272.4282,-73,0
1757168812280.1206,-71,0
1757168812287.813,-68,0
1757168812295.5054,-68,0
1757168812303.1978,-68,0
1757168812310.8901,-64,0
1757168812318.5825,-64,0
1757168812326.275,-62,0
1757168812333.9673,-62,0
1757168812341.6597,-64,0
1757168812237.7869,-62,0
1757168812245.4792,-59,0
1757168812253.1716,-62,0
1757168812260.864,-57,0
1757168812268.5564,-57,0
1757168812276.2488,-59,0
1757168812283.9412,-55,0
1757168812291.6335,-52,0
1757168812299.326,-55,0
1757168812307.0183,-57,0
1757168812314.7107,-66,0
1757168812322.403,-64,0
1757168812330.0955,-32,0
1757168812337.7878,-16,0
1757168812345.4802,-18,0
1757168812353.1726,-16,0
1757168812360.865,-32,0
1757168812368.5574,-55,0
1757168812376.2498,-57,0
1757168812383.9421,-52,0
1757168812391.6345,-55,0
1757168812399.327,-57,0
1757168812407.0193,-68,0
1757168812414.7117,-89,0
1757168812422.404,-140,0
1757168812430.0964,-135,0
1757168812437.7888,165,0
1757168812445.4812,793,0
1757168812453.1736,1400,0
1757168812460.866,1492,0
1757168812468.5583,696,0
1757168812476.2507,-296,0
1757168812483.943,-381,0
1757168812491.6355,-55,0
1757168812499.328,-151,0
1757168812507.0203,-268,0
1757168812514.7126,-158,0
1757168812522.405,-133,0
1757168812530.0974,-172,0
1757168812537.7898,-137,0
1757168812545.4822,-108,0
1757168812553.1746,-110,0
1757168812560.867,-94,0
1757168812568.5593,-73,0
1757168812576.2517,-66,0
1757168812583.944,-55,0
1757168812591.6365,-34,0
1757168812599.3289,-13,0
1757168812607.0212,6,0
1757168812614.7136,25,0
1757168812622.406,43,0
1757168812630.0984,64,0
1757168812637.7908,87,0
1757168812645.4832,110,0
1757168812653.1755,126,0
1757168812660.868,133,0
1757168812668.5603,126,0
1757168812676.2527,112,0
1757168812683.945,94,0
1757168812691.6375,66,0
1757168812699.3298,36,0
1757168812707.0222,-2,0
1757168812714.7146,-48,0
1757168812722.407,-87,0
1757168812730.0994,-110,0
1757168812737.7917,-124,0
1757168812745.4841,-135,0
1757168812753.1765,-142,0
1757168812760.869,-147,0
1757168812768.5613,-144,0
1757168812776.2537,-140,0
1757168812783.946,-131,0
1757168812791.6384,-126,0
1757168812823.7837,-124,0
1757168812831.476,-121,0
1757168812839.1685,-117,0
1757168812846.8608,-108,0
1757168812854.5532,-101,0
1757168812862.2456,-98,0
1757168812869.938,-98,0
1757168812877.6304,-110,0
1757168812885.3228,-114,0
1757168812893.0151,-98,0
1757168812900.7075,-82,0
1757168812908.4,-80,0
1757168812916.0923,-80,0
1757168812923.7847,-78,0
1757168812931.477,-75,0
1757168812939.1694,-68,0
1757168812946.8618,-66,0
1757168812954.5542,-73,0
1757168812962.2466,-75,0
1757168812969.939,-75,0
1757168812977.6313,-75,0
1757168812985.3237,-73,0
1757168812993.016,-73,0
1757168813000.7085,-73,0
1757168813008.401,-73,0
1757168813016.0933,-73,0
1757168813023.7856,-78,0
1757168813031.478,-85,0
1757168813039.1704,-78,0
1757168813046.8628,-64,0
1757168813054.5552,-66,0
1757168813062.2476,-75,0
1757168813069.94,-71,0
1757168813077.6323,-57,0
1757168813085.3247,-57,0
1757168813093.017,-59,0
1757168813100.7095,-59,0
1757168813108.4019,-59,0
1757168813116.0942,-57,0
1757168813123.7866,-52,0
1757168813131.479,-50,0
1757168813139.1714,-50,0
1757168813146.8638,-55,0
1757168813154.5562,-57,0
1757168813162.2485,-52,0
1757168813169.941,-45,0
1757168813177.6333,-45,0
1757168813185.3257,-48,0
1757168813193.018,-48,0
1757168813200.7104,-50,0
1757168813208.4028,-50,0
1757168813216.0952,-50,0
1757168813223.7876,-48,0
1757168813231.48,-48,0
1757168813239.1724,-48,0
1757168813246.8647,-43,0
1757168813254.5571,-36,0
1757168813262.2495,-39,0
1757168813269.942,-34,0
1757168813277.6343,-18,0
1757168813285.3267,-11,0
1757168813293.019,-11,0
1757168813300.7114,-2,0
1757168813308.4038,0,0
1757168813316.0962,-22,0
1757168813323.7886,-43,0
1757168813331.481,-50,0
1757168813339.1733,-48,0
1757168813346.8657,-41,0
1757168813354.558,-36,0
1757168813362.2505,-55,0
1757168813369.9429,-114,0
1757168813377.6353,-112,0
1757168813382.3994,177,0
1757168813390.0918,795,0
1757168813397.7842,1397,0
1757168813405.4766,1480,0
1757168813413.169,675,0
1757168813420.8613,-331,0
1757168813428.5537,-416,0
1757168813436.246,-59,0
1757168813443.9385,-128,0
1757168813451.6309,-243,0
1757168813459.3232,-160,0
1757168813467.0156,-156,0
1757168813474.708,-183,0
1757168813482.4004,-128,0
1757168813490.0928,-103,0
1757168813497.7852,-110,0
1757168813505.4775,-94,0
1757168813513.17,-75,0
1757168813520.8623,-68,0
1757168813528.5547,-59,0
1757168813536.247,-43,0
1757168813543.9395,-20,0
1757168813551.6318,0,0
1757168813559.3242,20,0
1757168813567.0166,43,0
1757168813574.709,66,0
1757168813582.4014,89,0
1757168813590.0938,110,0
1757168813597.7861,121,0
1757168813605.4785,124,0
1757168813613.171,119,0
1757168813620.8633,105,0
1757168813628.5557,85,0
1757168813636.248,59,0
1757168813643.9404,25,0
1757168813651.6328,-18,0
1757168813659.3252,-64,0
1757168813667.0176,-105,0
1757168813674.71,-133,0
1757168813682.4023,-154,0
1757168813690.0947,-170,0
1757168813697.787,-179,0
1757168813705.4795,-181,0
1757168813713.1719,-177,0
1757168813720.8643,-170,0
1757168813728.5566,-172,0
1757168813736.249,-177,0
1757168813743.9414,-170,0
1757168813751.6338,-158,0
1757168813759.3262,-151,0
1757168813767.0186,-147,0
1757168813774.711,-142,0
1757168813782.4033,-140,0
1757168813790.0957,-140,0
1757168813797.788,-133,0
1757168813805.4805,-126,0
1757168813813.1729,-124,0
1757168813820.8652,-124,0
1757168813828.5576,-124,0
1757168813836.25,-126,0
1757168813843.9424,-133,0
1757168813851.6348,-135,0
1757168813859.3271,-128,0
1757168813867.0195,-131,0
1757168813874.712,-135,0
1757168813882.4043,-137,0
1757168813890.0967,-140,0
1757168813897.789,-144,0
1757168813905.4814,-142,0
1757168813913.1738,-142,0
1757168813920.8662,-144,0
1757168813928.5586,-147,0
1757168813936.251,-147,0
1757168813948.9175,-142,0
1757168813956.6099,-142,0
1757168813964.3022,-144,0
1757168813971.9946,-144,0
1757168813979.687,-142,0
1757168813987.3794,-147,0
1757168813995.0718,-144,0
1757168814002.7642,-147,0
1757168814010.4565,-165,0
1757168814018.149,-160,0
1757168814025.8413,-142,0
1757168814033.5337,-140,0
1757168814041.226,-151,0
1757168814048.9185,-154,0
1757168814056.6108,-147,0
1757168814064.3032,-140,0
1757168814071.9956,-137,0
1757168814079.688,-137,0
1757168814087.3804,-135,0
1757168814095.0728,-135,0
1757168814102.7651,-135,0
1757168814110.4575,-128,0
1757168814118.15,-124,0
1757168814125.8423,-131,0
1757168814133.5347,-128,0
1757168814141.227,-117,0
1757168814148.9194,-105,0
1757168814156.6118,-96,0
1757168814164.3042,-91,0
1757168814171.9966,-91,0
1757168814179.689,-103,0
1757168814187.3813,-126,0
1757168814195.0737,-137,0
1757168814202.766,-133,0
1757168814210.4585,-128,0
1757168814218.151,-133,0
1757168814225.8433,-137,0
1757168814233.5356,-165,0
1757168814241.228,-220,0
1757168814248.9204,-142,0
1757168814256.6128,285,0
1757168814264.3052,958,0
1757168814271.9976,1446,0
1757168814279.69,1220,0
1757168814287.3823,174,0
1757168814295.0747,-593,0
1757168814302.767,-365,0
1757168814310.4595,-119,0
1757168814318.1519,-287,0
1757168814325.8442,-305,0
1757168814333.5366,-200,0
1757168814341.229,-220,0
1757168814348.9214,-236,0
1757168814356.6138,-193,0
1757168814364.3062,-179,0
1757168814371.9985,-183,0
1757168814379.691,-163,0
1757168814387.3833,-142,0
1757168814395.0757,-133,0
1757168814402.768,-117,0
1757168814410.4604,-98,0
1757168814418.1528,-80,0
1757168814425.8452,-57,0
1757168814433.5376,-29,0
1757168814441.23,-9,0
1757168814448.9224,9,0
1757168814456.6147,32,0
1757168814464.3071,52,0
1757168814471.9995,66,0
1757168814479.692,71,0
1757168814487.3843,62,0
1757168814495.0767,41,0
1757168814502.769,13,0
1757168814492.5073,-13,0
1757168814500.1997,-50,0
1757168814507.892,-94,0
1757168814515.5845,-142,0
1757168814523.2769,-193,0
1757168814530.9692,-239,0
1757168814538.6616,-248,0
1757168814546.354,-229,0
1757168814554.0464,-225,0
1757168814561.7388,-229,0
1757168814569.4312,-229,0
1757168814577.1235,-236,0
1757168814584.816,-229,0
1757168814592.5083,-204,0
1757168814600.2007,-193,0
1757168814607.893,-190,0
1757168814615.5854,-183,0
1757168814623.2778,-177,0
1757168814630.9702,-167,0
1757168814638.6626,-154,0
1757168814646.355,-147,0
1757168814654.0474,-144,0
1757168814661.7397,-144,0
1757168814669.4321,-137,0
1757168814677.1245,-131,0
1757168814684.817,-124,0
1757168814692.5093,-121,0
1757168814700.2017,-121,0
1757168814707.894,-124,0
1757168814715.5864,-124,0
1757168814723.2788,-117,0
1757168814730.9712,-114,0
1757168814738.6636,-117,0
1757168814746.356,-119,0
1757168814754.0483,-124,0
1757168814761.7407,-121,0
1757168814769.433,-112,0
1757168814777.1255,-110,0
1757168814784.8179,-108,0
1757168814792.5103,-108,0
1757168814800.2026,-110,0
1757168814807.895,-108,0
1757168814815.5874,-101,0
1757168814823.2798,-98,0
1757168814830.9722,-96,0
1757168814838.6646,-96,0
1757168814846.357,-98,0
1757168814854.0493,-94,0
1757168814861.7417,-87,0
1757168814869.434,-85,0
1757168814877.1265,-85,0
1757168814884.8188,-82,0
1757168814892.5112,-85,0
1757168814900.2036,-82,0
1757168814907.896,-75,0
1757168814915.5884,-73,0
1757168814923.2808,-71,0
1757168814930.9731,-71,0
1757168814938.6655,-73,0
1757168814946.358,-71,0
1757168814954.0503,-64,0
1757168814961.7427,-64,0
1757168814969.435,-62,0
1757168814977.1274,-62,0
1757168814984.8198,-64,0
1757168814992.5122,-59,0
1757168815000.2046,-55,0
1757168815007.897,-50,0
1757168815015.5894,-34,0
1757168815023.2817,-27,0
1757168815030.974,-32,0
1757168815038.6665,-25,0
1757168815046.359,-13,0
1757168815072.8982,-25,0
1757168815080.5906,-45,0
1757168815088.283,-57,0
1757168815095.9753,-57,0
1757168815103.6677,-50,0
1757168815111.36,-45,0
1757168815119.0525,-57,0
1757168815126.7449,-110,0
1757168815134.4373,-174,0
1757168815142.1296,-16,0
1757168815149.822,533,0
1757168815157.5144,1211,0
1757168815165.2068,1561,0
1757168815172.8992,1103,0
1757168815180.5916,20,0
1757168815188.284,-473,0
1757168815195.9763,-151,0
1757168815203.6687,-57,0
1757168815211.361,-241,0
1757168815219.0535,-200,0
1757168815226.7458,-126,0
1757168815234.4382,-167,0
1757168815242.1306,-154,0
1757168815249.823,-108,0
1757168815257.5154,-108,0
1757168815265.2078,-105,0
1757168815272.9001,-85,0
1757168815280.5925,-68,0
1757168815288.285,-52,0
1757168815295.9773,-32,0
1757168815303.6697,-16,0
1757168815311.362,2,0
1757168815319.0544,18,0
1757168815326.7468,41,0
1757168815334.4392,64,0
1757168815342.1316,87,0
1757168815349.824,108,0
1757168815357.5164,124,0
1757168815365.2087,135,0
1757168815372.9011,135,0
1757168815380.5935,126,0
1757168815388.286,110,0
1757168815395.9783,82,0
1757168815403.6707,50,0
1757168815411.363,13,0
1757168815419.0554,-29,0
1757168815426.7478,-66,0
1757168815434.4402,-96,0
1757168815442.1326,-119,0
1757168815449.825,-135,0
1757168815457.5173,-149,0
1757168815465.2097,-149,0
1757168815472.902,-144,0
1757168815480.5945,-140,0
1757168815488.2869,-137,0
1757168815495.9792,-133,0
1757168815503.6716,-128,0
1757168815511.364,-124,0
1757168815519.0564,-117,0
1757168815526.7488,-108,0
1757168815534.4412,-105,0
1757168815542.1335,-105,0
1757168815549.826,-110,0
1757168815557.5183,-112,0
1757168815565.2107,-98,0
1757168815572.903,-85,0
1757168815580.5955,-82,0
1757168815588.2878,-82,0
1757168815595.9802,-78,0
1757168815603.6726,-73,0
1757168815611.365,-68,0
1757168815619.0574,-66,0
1757168815626.7498,-66,0
1757168815613.7615,-71,0
1757168815621.4539,-71,0
1757168815629.1462,-68,0
1757168815636.8386,-68,0
1757168815644.531,-66,0
1757168815652.2234,-68,0
1757168815659.9158,-73,0
1757168815667.6082,-73,0
1757168815675.3005,-71,0
1757168815682.993,-71,0
1757168815690.6853,-71,0
1757168815698.3777,-82,0
1757168815706.07,-89,0
1757168815713.7625,-78,0
1757168815721.4548,-68,0
1757168815729.1472,-66,0
1757168815736.8396,-64,0
1757168815744.532,-64,0
1757168815752.2244,-64,0
1757168815759.9167,-62,0
1757168815767.6091,-59,0
1757168815775.3015,-57,0
1757168815782.994,-55,0
1757168815790.6863,-50,0
1757168815798.3787,-50,0
1757168815806.071,-48,0
1757168815813.7634,-48,0
1757168815821.4558,-48,0
1757168815829.1482,-48,0
1757168815836.8406,-50,0
1757168815844.533,-48,0
1757168815852.2253,-41,0
1757168815859.9177,-43,0
1757168815867.61,-45,0
1757168815875.3025,-43,0
1757168815882.9949,-41,0
1757168815890.6873,-41,0
1757168815898.3796,-36,0
1757168815906.072,-34,0
1757168815913.7644,-34,0
1757168815921.4568,-34,0
1757168815929.1492,-29,0
1757168815936.8416,-11,0
1757168815944.534,0,0
1757168815952.2263,0,0
1757168815959.9187,2,0
1757168815967.611,2,0
1757168815975.3035,-13,0
1757168815982.9958,-29,0
1757168815990.6882,-34,0
1757168815998.3806,-34,0
1757168816006.073,-34,0
1757168816013.7654,-29,0
1757168816021.4578,-43,0
1757168816029.1501,-105,0
1757168816036.8425,-142,0
1757168816044.535,96,0
1757168816052.2273,698,0
1757168816059.9197,1340,0
1757168816067.612,1542,0
1757168816075.3044,880,0
1757168816082.9968,-177,0
1757168816090.6892,-425,0
1757168816098.3816,-71,0
1757168816106.074,-87,0
1757168816113.7664,-234,0
1757168816121.4587,-149,0
1757168816129.1511,-105,0
1757168816136.8435,-149,0
1757168816144.536,-124,0
1757168816152.2283,-89,0
1757168816159.9207,-91,0
1757168816167.613,-78,0
1757168816161.4177,-55,0
1757168816169.11,-45,0
1757168816176.8025,-36,0
1757168816184.4949,-18,0
1757168816192.1873,2,0
1757168816199.8796,25,0
1757168816207.572,45,0
1757168816215.2644,64,0
1757168816222.9568,78,0
1757168816230.6492,96,0
1757168816238.3416,121,0
1757168816246.034,142,0
1757168816253.7263,149,0
1757168816261.4187,147,0
1757168816269.111,137,0
1757168816276.8035,117,0
1757168816284.4958,94,0
1757168816292.1882,66,0
1757168816299.8806,27,0
1757168816307.573,-20,0
1757168816315.2654,-59,0
1757168816322.9578,-87,0
1757168816330.6501,-108,0
1757168816338.3425,-119,0
1757168816346.035,-131,0
1757168816353.7273,-140,0
1757168816361.4197,-135,0
1757168816369.112,-124,0
1757168816376.8044,-121,0
1757168816384.4968,-117,0
1757168816392.1892,-112,0
1757168816399.8816,-108,0
1757168816407.574,-101,0
1757168816415.2664,-96,0
1757168816422.9587,-89,0
1757168816430.6511,-85,0
1757168816438.3435,-82,0
1757168816446.036,-75,0
1757168816453.7283,-68,0
1757168816461.4207,-62,0
1757168816469.113,-59,0
1757168816476.8054,-59,0
1757168816484.4978,-57,0
1757168816492.1902,-59,0
1757168816499.8826,-59,0
1757168816507.575,-55,0
1757168816515.2673,-50,0
1757168816522.9597,-59,0
1757168816530.652,-73,0
1757168816538.3445,-73,0
1757168816546.0369,-66,0
1757168816553.7292,-62,0
1757168816561.4216,-59,0
1757168816569.114,-57,0
1757168816576.8064,-55,0
1757168816584.4988,-57,0
1757168816592.1912,-57,0
1757168816599.8835,-52,0
1757168816607.576,-48,0
1757168816615.2683,-45,0
1757168816622.9607,-48,0
1757168816630.653,-55,0
1757168816638.3455,-55,0
1757168816646.0378,-50,0
1757168816653.7302,-45,0
1757168816661.4226,-43,0
1757168816669.115,-45,0
1757168816676.8074,-48,0
1757168816684.4998,-45,0
1757168816692.1921,-41,0
1757168816699.8845,-41,0
1757168816707.577,-39,0
1757168816715.2693,-36,0
1757168816738.1619,-39,0
1757168816745.8542,-39,0
1757168816753.5466,-34,0
1757168816761.239,-34,0
1757168816768.9314,-34,0
1757168816776.6238,-41,0
1757168816784.3162,-52,0
1757168816792.0085,-50,0
1757168816799.701,-36,0
1757168816807.3933,-34,0
1757168816815.0857,-34,0
1757168816822.778,-29,0
1757168816830.4705,-32,0
1757168816838.1628,-32,0
1757168816845.8552,-25,0
1757168816853.5476,-22,0
1757168816861.24,-20,0
1757168816868.9324,-18,0
1757168816876.6248,-16,0
1757168816884.3171,0,0
1757168816892.0095,11,0
1757168816899.702,9,0
1757168816907.3943,16,0
1757168816915.0867,11,0
1757168816922.779,-16,0
1757168816930.4714,-27,0
1757168816938.1638,-20,0
1757168816945.8562,-18,0
1757168816953.5486,-18,0
1757168816961.241,-25,0
1757168816968.9333,-57,0
1757168816976.6257,-108,0
1757168816984.318,-36,0
1757168816992.0105,367,0
1757168816999.703,1036,0
1757168817007.3953,1544,0
1757168817015.0876,1358,0
1757168817022.78,333,0
1757168817030.4724,-478,0
1757168817038.1648,-289,0
1757168817045.8572,-29,0
1757168817053.5496,-197,0
1757168817061.242,-218,0
1757168817068.9343,-101,0
1757168817076.6267,-121,0
1757168817084.319,-142,0
1757168817092.0115,-94,0
1757168817099.7039,-85,0
1757168817107.3962,-89,0
1757168817115.0886,-62,0
1757168817122.781,-41,0
1757168817130.4734,-34,0
1757168817138.1658,-20,0
1757168817145.8582,-2,0
1757168817153.5505,16,0
1757168817161.243,39,0
1757168817168.9353,62,0
1757168817176.6277,80,0
1757168817184.32,103,0
1757168817192.0125,121,0
1757168817199.7048,140,0
1757168817207.3972,158,0
1757168817215.0896,163,0
1757168817222.782,156,0
1757168817230.4744,137,0
1757168817238.1667,110,0
1757168817245.8591,80,0
1757168817253.5515,45,0
1757168817261.244,2,0
1757168817268.9363,-43,0
1757168817276.6287,-82,0
1757168817284.321,-110,0
1757168817292.0134,-128,0
1757168817277.575,-133,0
1757168817285.2673,-137,0
1757168817292.9597,-142,0
1757168817300.652,-140,0
1757168817308.3445,-133,0
1757168817316.0369,-128,0
1757168817323.7292,-119,0
1757168817331.4216,-112,0
1757168817339.114,-112,0
1757168817346.8064,-119,0
1757168817354.4988,-112,0
1757168817362.1912,-91,0
1757168817369.8835,-82,0
1757168817377.576,-78,0
1757168817385.2683,-71,0
1757168817392.9607,-68,0
1757168817400.653,-66,0
1757168817408.3455,-62,0
1757168817416.0378,-55,0
1757168817423.7302,-52,0
1757168817431.4226,-52,0
1757168817439.115,-55,0
1757168817446.8074,-57,0
1757168817454.4998,-57,0
1757168817462.1921,-57,0
1757168817469.8845,-57,0
1757168817477.577,-59,0
1757168817485.2693,-59,0
1757168817492.9617,-59,0
1757168817500.654,-59,0
1757168817508.3464,-57,0
1757168817516.0388,-52,0
1757168817523.7312,-52,0
1757168817531.4236,-62,0
1757168817539.116,-66,0
1757168817546.8083,-59,0
1757168817554.5007,-50,0
1757168817562.193,-50,0
1757168817569.8855,-50,0
1757168817577.578,-50,0
1757168817585.2703,-45,0
1757168817592.9626,-43,0
1757168817600.655,-41,0
1757168817608.3474,-39,0
1757168817616.0398,-39,0
1757168817623.7322,-36,0
1757168817631.4246,-34,0
1757168817639.117,-34,0
1757168817646.8093,-32,0
1757168817654.5017,-29,0
1757168817662.194,-32,0
1757168817669.8865,-32,0
1757168817677.5789,-29,0
1757168817685.2712,-29,0
1757168817692.9636,-27,0
1757168817700.656,-27,0
1757168817708.3484,-29,0
1757168817716.0408,-27,0
1757168817723.7332,-22,0
1757168817731.4255,-22,0
1757168817739.118,-22,0
1757168817746.8103,-22,0
1757168817754.5027,-22,0
1757168817762.195,-22,0
1757168817769.8875,-22,0
1757168817777.5798,-22,0
1757168817785.2722,-20,0
1757168817792.9646,-18,0
1757168817800.657,-20,0
1757168817808.3494,-13,0
1757168817816.0417,0,0
1757168817823.7341,11,0
1757168817831.4265,16,0
1757168817820.953,20,0
1757168817828.6453,18,0
1757168817836.3376,4,0
1757168817844.03,-11,0
1757168817851.7224,-22,0
1757168817859.4148,-25,0
1757168817867.1072,-29,0
1757168817874.7996,-34,0
1757168817882.492,-36,0
1757168817890.1843,-80,0
1757168817897.8767,-126,0
1757168817905.569,68,0
1757168817913.2615,623,0
1757168817920.9539,1278,0
1757168817928.6462,1593,0
1757168817936.3386,1075,0
1757168817944.031,-16,0
1757168817951.7234,-439,0
1757168817959.4158,-103,0
1757168817967.1082,-50,0
1757168817974.8005,-227,0
1757168817982.493,-170,0
1757168817990.1853,-105,0
1757168817997.8777,-147,0
1757168818005.57,-133,0
1757168818013.2625,-98,0
1757168818020.9548,-108,0
1757168818028.6472,-98,0
1757168818036.3396,-68,0
1757168818044.032,-57,0
1757168818051.7244,-45,0
1757168818059.4167,-22,0
1757168818067.1091,-2,0
1757168818074.8015,11,0
1757168818082.494,29,0
1757168818090.1863,52,0
1757168818097.8787,75,0
1757168818105.571,98,0
1757168818113.2634,119,0
1757168818120.9558,135,0
1757168818128.6482,147,0
1757168818136.3406,147,0
1757168818144.033,137,0
1757168818151.7253,119,0
1757168818159.4177,94,0
1757168818167.11,64,0
1757168818174.8025,25,0
1757168818182.4949,-16,0
1757168818190.1873,-57,0
1757168818197.8796,-89,0
1757168818205.572,-105,0
1757168818213.2644,-124,0
1757168818220.9568,-137,0
1757168818228.6492,-142,0
1757168818236.3416,-137,0
1757168818244.034,-131,0
1757168818251.7263,-126,0
1757168818259.4187,-124,0
1757168818267.111,-121,0
1757168818274.8035,-119,0
1757168818282.4958,-112,0
1757168818290.1882,-103,0
1757168818297.8806,-98,0
1757168818305.573,-98,0
1757168818313.2654,-96,0
1757168818320.9578,-91,0
1757168818328.6501,-85,0
1757168818336.3425,-75,0
1757168818344.035,-73,0
1757168818351.7273,-71,0
1757168818359.4197,-73,0
1757168818367.112,-71,0
1757168818374.8044,-64,0
1757168818447.5142,-59,0
1757168818455.2065,-59,0
1757168818462.899,-62,0
1757168818470.5913,-75,0
1757168818478.2837,-87,0
1757168818485.976,-75,0
1757168818493.6685,-64,0
1757168818501.3608,-66,0
1757168818509.0532,-68,0
1757168818516.7456,-68,0
1757168818524.438,-66,0
1757168818532.1304,-62,0
1757168818539.8228,-57,0
1757168818547.5151,-57,0
1757168818555.2075,-59,0
1757168818562.9,-62,0
1757168818570.5923,-59,0
1757168818578.2847,-59,0
1757168818585.977,-66,0
1757168818593.6694,-66,0
1757168818601.3618,-59,0
1757168818609.0542,-57,0
1757168818616.7466,-57,0
1757168818624.439,-48,0
1757168818632.1313,-45,0
1757168818639.8237,-48,0
1757168818647.516,-48,0
1757168818655.2085,-48,0
1757168818662.901,-48,0
1757168818670.5933,-43,0
1757168818678.2856,-41,0
1757168818685.978,-41,0
1757168818693.6704,-43,0
1757168818701.3628,-48,0
1757168818709.0552,-45,0
1757168818716.7476,-39,0
1757168818724.44,-39,0
1757168818732.1323,-41,0
1757168818739.8247,-43,0
1757168818747.517,-45,0
1757168818755.2095,-43,0
1757168818762.9019,-39,0
1757168818770.5942,-39,0
1757168818778.2866,-39,0
1757168818785.979,-41,0
1757168818793.6714,-45,0
1757168818801.3638,-41,0
1757168818809.0562,-36,0
1757168818816.7485,-36,0
1757168818824.441,-39,0
1757168818832.1333,-43,0
1757168818839.8257,-45,0
1757168818847.518,-41,0
1757168818855.2104,-36,0
1757168818862.9028,-32,0
1757168818870.5952,-20,0
1757168818878.2876,-13,0
1757168818885.98,-11,0
1757168818893.6724,-4,0
1757168818901.3647,-4,0
1757168818909.0571,-18,0
1757168818916.7495,-39,0
1757168818924.442,-50,0
1757168818932.1343,-52,0
1757168818939.8267,-45,0
1757168818947.519,-41,0
1757168818955.2114,-52,0
1757168818962.9038,-105,0
1757168818970.5962,-158,0
1757168818978.2886,-2,0
1757168818985.981,514,0
1757168818993.6733,1174,0
1757168819001.3657,1535,0
1757168819034.1428,1108,0
1757168819041.8352,34,0
1757168819049.5276,-480,0
1757168819057.22,-165,0
1757168819064.9124,-62,0
1757168819072.6047,-248,0
1757168819080.297,-216,0
1757168819087.9895,-140,0
1757168819095.682,-177,0
1757168819103.3743,-167,0
1757168819111.0667,-124,0
1757168819118.759,-135,0
1757168819126.4514,-151,0
1757168819134.1438,-131,0
1757168819141.8362,-101,0
1757168819149.5286,-80,0
1757168819157.221,-64,0
1757168819164.9133,-41,0
1757168819172.6057,-25,0
1757168819180.298,-9,0
1757168819187.9905,16,0
1757168819195.6829,43,0
1757168819203.3752,66,0
1757168819211.0676,82,0
1757168819218.76,96,0
1757168819226.4524,110,0
1757168819234.1448,114,0
1757168819241.8372,108,0
1757168819249.5295,91,0
1757168819257.222,64,0
1757168819264.9143,27,0
1757168819272.6067,-4,0
1757168819280.299,-39,0
1757168819287.9915,-78,0
1757168819295.6838,-114,0
1757168819303.3762,-137,0
1757168819311.0686,-156,0
1757168819318.761,-170,0
1757168819326.4534,-167,0
1757168819334.1458,-163,0
1757168819341.8381,-163,0
1757168819349.5305,-163,0
1757168819357.223,-158,0
1757168819364.9153,-154,0
1757168819372.6077,-147,0
1757168819380.3,-137,0
1757168819387.9924,-128,0
1757168819395.6848,-126,0
1757168819403.3772,-126,0
1757168819411.0696,-114,0
1757168819418.762,-108,0
1757168819426.4543,-110,0
1757168819434.1467,-105,0
1757168819441.839,-94,0
1757168819449.5315,-94,0
1757168819457.2239,-94,0
1757168819464.9163,-89,0
1757168819472.6086,-87,0
1757168819480.301,-89,0
1757168819487.9934,-87,0
1757168819495.6858,-85,0
1757168819503.3782,-85,0
1757168819511.0706,-87,0
1757168819518.763,-87,0
1757168819526.4553,-91,0
1757168819534.1477,-98,0
1757168819541.84,-94,0
1757168819549.5325,-85,0
1757168819557.2249,-87,0
1757168819564.9172,-87,0
1757168819572.6096,-82,0
1757168819580.302,-80,0
1757168819587.9944,-80,0
1757168819527.6692,-80,0
1757168819535.3616,-82,0
1757168819543.054,-80,0
1757168819550.7463,-78,0
1757168819558.4387,-82,0
1757168819566.131,-80,0
1757168819573.8235,-73,0
1757168819581.5159,-75,0
1757168819589.2083,-71,0
1757168819596.9006,-66,0
1757168819604.593,-80,0
1757168819612.2854,-80,0
1757168819619.9778,-59,0
1757168819627.6702,-55,0
1757168819635.3625,-57,0
1757168819643.055,-64,0
1757168819650.7473,-73,0
1757168819658.4397,-64,0
1757168819666.132,-48,0
1757168819673.8245,-45,0
1757168819681.5168,-45,0
1757168819689.2092,-41,0
1757168819696.9016,-41,0
1757168819704.594,-39,0
1757168819712.2864,-34,0
1757168819719.9788,-34,0
1757168819727.6711,-34,0
1757168819735.3635,-34,0
1757168819743.056,-32,0
1757168819750.7483,-27,0
1757168819758.4407,-25,0
1757168819766.133,-25,0
1757168819773.8254,-25,0
1757168819781.5178,-27,0
1757168819789.2102,-25,0
1757168819796.9026,-11,0
1757168819804.595,6,0
1757168819812.2874,9,0
1757168819819.9797,9,0
1757168819827.672,13,0
1757168819835.3645,9,0
1757168819843.057,-9,0
1757168819850.7493,-27,0
1757168819858.4417,-29,0
1757168819866.134,-22,0
1757168819873.8264,-20,0
1757168819881.5188,-25,0
1757168819889.2112,-48,0
1757168819896.9036,-98,0
1757168819904.596,-36,0
1757168819912.2883,367,0
1757168819919.9807,1034,0
1757168819927.673,1528,0
1757168819935.3655,1340,0
1757168819943.0579,328,0
1757168819950.7502,-482,0
1757168819958.4426,-301,0
1757168819966.135,-22,0
1757168819973.8274,-172,0
1757168819981.5198,-197,0
1757168819989.2122,-96,0
1757168819996.9045,-121,0
1757168820004.597,-142,0
1757168820012.2893,-96,0
1757168820019.9817,-80,0
1757168820027.674,-80,0
1757168820035.3665,-62,0
1757168820043.0588,-45,0
1757168820050.7512,-41,0
1757168820058.4436,-29,0
1757168820066.136,-13,0
1757168820073.8284,6,0
1757168820081.5208,32,0
1757168820112.6975,55,0
1757168820120.39,75,0
1757168820128.0823,101,0
1757168820135.7747,126,0
1757168820143.467,147,0
1757168820151.1594,160,0
1757168820158.8518,163,0
1757168820166.5442,149,0
1757168820174.2366,131,0
1757168820181.929,114,0
1757168820189.6213,87,0
1757168820197.3137,45,0
1757168820205.006,-2,0
1757168820212.6985,-48,0
1757168820220.3909,-87,0
1757168820228.0833,-114,0
1757168820235.7756,-133,0
1757168820243.468,-144,0
1757168820251.1604,-156,0
1757168820258.8528,-156,0
1757168820266.5452,-149,0
1757168820274.2375,-142,0
1757168820281.93,-140,0
1757168820289.6223,-135,0
1757168820297.3147,-128,0
1757168820305.007,-121,0
1757168820312.6995,-114,0
1757168820320.3918,-105,0
1757168820328.0842,-98,0
1757168820335.7766,-91,0
1757168820343.469,-89,0
1757168820351.1614,-85,0
1757168820358.8538,-75,0
1757168820366.5461,-68,0
1757168820374.2385,-68,0
1757168820381.931,-68,0
1757168820389.6233,-68,0
1757168820397.3157,-66,0
1757168820405.008,-62,0
1757168820412.7004,-62,0
1757168820420.3928,-64,0
1757168820428.0852,-66,0
1757168820435.7776,-71,0
1757168820443.47,-71,0
1757168820451.1624,-64,0
1757168820458.8547,-62,0
1757168820466.547,-59,0
1757168820474.2395,-59,0
1757168820481.932,-64,0
1757168820489.6243,-64,0
1757168820497.3167,-57,0
1757168820505.009,-52,0
1757168820512.7014,-50,0
1757168820520.3938,-50,0
1757168820528.0862,-52,0
1757168820535.7786,-50,0
1757168820543.471,-45,0
1757168820551.1633,-45,0
1757168820558.8557,-43,0
1757168820566.548,-43,0
1757168820574.2405,-45,0
1757168820581.9329,-43,0
1757168820589.6252,-43,0
1757168820597.3176,-50,0
1757168820605.01,-43,0
1757168820612.7024,-36,0
1757168820620.3948,-41,0
1757168820628.0872,-36,0
1757168820635.7795,-25,0
1757168820643.472,-22,0
1757168820651.1643,-25,0
1757168820658.8567,-25,0
1757168820666.549,-27,0
1757168820654.8923,-25,0
1757168820662.5847,-20,0
1757168820670.277,-16,0
1757168820677.9695,-13,0
1757168820685.6619,-16,0
1757168820693.3542,-18,0
1757168820701.0466,-13,0
1757168820708.739,-9,0
1757168820716.4314,2,0
1757168820724.1238,11,0
1757168820731.8162,6,0
1757168820739.5085,6,0
1757168820747.201,22,0
1757168820754.8933,18,0
1757168820762.5857,-4,0
1757168820770.278,-13,0
1757168820777.9705,-13,0
1757168820785.6628,-13,0
1757168820793.3552,-9,0
1757168820801.0476,-11,0
1757168820808.74,-48,0
1757168820816.4324,-105,0
1757168820824.1248,2,0
1757168820831.8171,478,0
1757168820839.5095,1151,0
1757168820847.202,1593,0
1757168820854.8943,1289,0
1757168820862.5867,223,0
1757168820870.279,-448,0
1757168820877.9714,-181,0
1757168820885.6638,0,0
1757168820893.3562,-183,0
1757168820901.0486,-177,0
1757168820908.741,-85,0
1757168820916.4333,-119,0
1757168820924.1257,-124,0
1757168820931.818,-75,0
1757168820939.5105,-66,0
1757168820947.203,-66,0
1757168820954.8953,-48,0
1757168820962.5876,-34,0
1757168820970.28,-22,0
1757168820977.9724,-2,0
1757168820985.6648,16,0
1757168820993.3572,32,0
1757168821001.0496,52,0
1757168821008.742,73,0
1757168821016.4343,96,0
1757168821024.1267,121,0
1757168821031.819,144,0
1757168821039.5115,165,0
1757168821047.2039,179,0
1757168821054.8962,181,0
1757168821062.5886,172,0
1757168821070.281,154,0
1757168821077.9734,126,0
1757168821085.6658,91,0
1757168821093.3582,55,0
1757168821101.0505,16,0
1757168821108.743,-27,0
1757168821116.4353,-59,0
1757168821124.1277,-78,0
1757168821131.82,-96,0
1757168821139.5125,-112,0
1757168821147.2048,-114,0
1757168821154.8972,-112,0
1757168821162.5896,-108,0
1757168821170.282,-101,0
1757168821177.9744,-98,0
1757168821185.6667,-96,0
1757168821193.3591,-91,0
1757168821201.0515,-87,0
1757168821208.744,-80,0
1757168821241.3079,-73,0
1757168821249.0002,-71,0
1757168821256.6926,-71,0
1757168821264.385,-64,0
1757168821272.0774,-57,0
1757168821279.7698,-50,0
1757168821287.4622,-45,0
1757168821295.1545,-55,0
1757168821302.847,-64,0
1757168821310.5393,-52,0
1757168821318.2317,-39,0
1757168821325.924,-41,0
1757168821333.6165,-39,0
1757168821341.3088,-36,0
1757168821349.0012,-41,0
1757168821356.6936,-41,0
1757168821364.386,-39,0
1757168821372.0784,-39,0
1757168821379.7708,-41,0
1757168821387.4631,-45,0
1757168821395.1555,-43,0
1757168821402.848,-41,0
1757168821410.5403,-43,0
1757168821418.2327,-43,0
1757168821425.925,-39,0
1757168821433.6174,-39,0
1757168821441.3098,-41,0
1757168821449.0022,-36,0
1757168821456.6946,-34,0
1757168821464.387,-34,0
1757168821472.0793,-32,0
1757168821479.7717,-32,0
1757168821487.464,-29,0
1757168821495.1565,-27,0
1757168821502.8489,-27,0
1757168821510.5413,-25,0
1757168821518.2336,-22,0
1757168821525.926,-22,0
1757168821533.6184,-22,0
1757168821541.3108,-18,0
1757168821549.0032,-20,0
1757168821556.6956,-20,0
1757168821564.388,-20,0
1757168821572.0803,-20,0
1757168821579.7727,-16,0
1757168821587.465,-13,0
1757168821595.1575,-16,0
1757168821602.8499,-16,0
1757168821610.5422,-22,0
1757168821618.2346,-25,0
1757168821625.927,-16,0
1757168821633.6194,-13,0
1757168821641.3118,-18,0
1757168821649.0042,-16,0
1757168821656.6965,-11,0
1757168821664.389,-11,0
1757168821672.0813,-11,0
1757168821679.7737,-9,0
1757168821687.466,-9,0
1757168821695.1584,-9,0
1757168821702.8508,-6,0
1757168821710.5432,-2,0
1757168821718.2356,13,0
1757168821725.928,25,0
1757168821733.6204,27,0
1757168821741.3127,29,0
1757168821749.0051,25,0
1757168821756.6975,6,0
1757168821764.39,-9,0
1757168821772.0823,-16,0
1757168821779.7747,-13,0
1757168821787.467,-9,0
1757168821795.1594,-13,0
1757168821778.1995,-32,0
1757168821785.8918,-85,0
1757168821793.5842,-98,0
1757168821801.2766,172,0
1757168821808.969,786,0
1757168821816.6614,1404,0
1757168821824.3538,1533,0
1757168821832.0461,797,0
1757168821839.7385,-213,0
1757168821847.431,-374,0
1757168821855.1233,-52,0
1757168821862.8157,-119,0
1757168821870.508,-236,0
1757168821878.2004,-131,0
1757168821885.8928,-103,0
1757168821893.5852,-147,0
1757168821901.2776,-114,0
1757168821908.97,-85,0
1757168821916.6624,-89,0
1757168821924.3547,-73,0
1757168821932.047,-50,0
1757168821939.7395,-43,0
1757168821947.432,-32,0
1757168821955.1243,-9,0
1757168821962.8167,13,0
1757168821970.509,27,0
1757168821978.2014,43,0
1757168821985.8938,62,0
1757168821993.5862,85,0
1757168822001.2786,108,0
1757168822008.971,126,0
1757168822016.6633,144,0
1757168822024.3557,154,0
1757168822032.048,149,0
1757168822039.7405,135,0
1757168822047.4329,117,0
1757168822055.1252,91,0
1757168822062.8176,59,0
1757168822070.51,20,0
1757168822078.2024,-22,0
1757168822085.8948,-68,0
1757168822093.5872,-101,0
1757168822101.2795,-114,0
1757168822108.972,-124,0
1757168822116.6643,-133,0
1757168822124.3567,-137,0
1757168822132.049,-140,0
1757168822139.7415,-135,0
1757168822147.4338,-126,0
1757168822155.1262,-117,0
1757168822162.8186,-114,0
1757168822170.511,-117,0
1757168822178.2034,-112,0
1757168822185.8958,-101,0
1757168822193.5881,-94,0
1757168822201.2805,-87,0
1757168822208.973,-82,0
1757168822216.6653,-82,0
1757168822224.3577,-80,0
1757168822232.05,-73,0
1757168822239.7424,-68,0
1757168822247.4348,-66,0
1757168822255.1272,-66,0
1757168822262.8196,-68,0
1757168822270.512,-71,0
1757168822278.2043,-66,0
1757168822285.8967,-59,0
1757168822293.589,-62,0
1757168822301.2815,-66,0
1757168822308.9739,-71,0
1757168822316.6663,-71,0
1757168822324.3586,-64,0
1757168822332.051,-64,0
1757168822372.065,-62,0
1757168822379.7573,-66,0
1757168822387.4497,-73,0
1757168822395.142,-71,0
1757168822402.8345,-64,0
1757168822410.5269,-64,0
1757168822418.2192,-62,0
1757168822425.9116,-68,0
1757168822433.604,-82,0
1757168822441.2964,-78,0
1757168822448.9888,-59,0
1757168822456.6812,-57,0
1757168822464.3735,-59,0
1757168822472.066,-55,0
1757168822479.7583,-55,0
1757168822487.4507,-55,0
1757168822495.143,-50,0
1757168822502.8354,-45,0
1757168822510.5278,-45,0
1757168822518.2202,-50,0
1757168822525.9126,-48,0
1757168822533.605,-41,0
1757168822541.2974,-41,0
1757168822548.9897,-45,0
1757168822556.6821,-43,0
1757168822564.3745,-41,0
1757168822572.067,-45,0
1757168822579.7593,-41,0
1757168822587.4517,-34,0
1757168822595.144,-34,0
1757168822602.8364,-39,0
1757168822610.5288,-41,0
1757168822618.2212,-43,0
1757168822625.9136,-48,0
1757168822633.606,-48,0
1757168822641.2983,-39,0
1757168822648.9907,-34,0
1757168822656.683,-39,0
1757168822664.3755,-32,0
1757168822672.0679,-16,0
1757168822679.7603,-4,0
1757168822687.4526,0,0
1757168822695.145,6,0
1757168822702.8374,11,0
1757168822710.5298,4,0
1757168822718.2222,-16,0
1757168822725.9146,-27,0
1757168822733.607,-27,0
1757168822741.2993,-25,0
1757168822748.9917,-27,0
1757168822756.684,-29,0
1757168822764.3765,-45,0
1757168822772.0688,-94,0
1757168822779.7612,-73,0
1757168822787.4536,245,0
1757168822795.146,875,0
1757168822802.8384,1450,0
1757168822810.5308,1459,0
1757168822818.2231,593,0
1757168822825.9155,-381,0
1757168822833.608,-397,0
1757168822841.3003,-48,0
1757168822848.9927,-131,0
1757168822856.685,-220,0
1757168822864.3774,-119,0
1757168822872.0698,-110,0
1757168822879.7622,-144,0
1757168822887.4546,-112,0
1757168822895.147,-89,0
1757168822902.8394,-87,0
1757168822910.5317,-68,0
1757168822918.224,-52,0
1757168822925.9165,-45,0
1757168822907.1934,-27,0
1757168822914.8857,-4,0
1757168822922.5781,9,0
1757168822930.2705,25,0
1757168822937.963,45,0
1757168822945.6553,71,0
1757168822953.3477,91,0
1757168822961.04,110,0
1757168822968.7324,133,0
1757168822976.4248,151,0
1757168822984.1172,154,0
1757168822991.8096,140,0
1757168822999.502,126,0
1757168823007.1943,114,0
1757168823014.8867,89,0
1757168823022.579,50,0
1757168823030.2715,4,0
1757168823037.9639,-45,0
1757168823045.6562,-87,0
1757168823053.3486,-114,0
1757168823061.041,-133,0
1757168823068.7334,-147,0
1757168823076.4258,-158,0
1757168823084.1182,-160,0
1757168823091.8105,-156,0
1757168823099.503,-156,0
1757168823107.1953,-158,0
1757168823114.8877,-154,0
1757168823122.58,-140,0
1757168823130.2725,-133,0
1757168823137.9648,-126,0
1757168823145.6572,-117,0
1757168823153.3496,-110,0
1757168823161.042,-101,0
1757168823168.7344,-96,0
1757168823176.4268,-91,0
1757168823184.1191,-82,0
1757168823191.8115,-78,0
1757168823199.504,-73,0
1757168823207.1963,-73,0
1757168823214.8887,-73,0
1757168823222.581,-73,0
1757168823230.2734,-71,0
1757168823237.9658,-71,0
1757168823245.6582,-71,0
1757168823253.3506,-71,0
1757168823261.043,-73,0
1757168823268.7354,-73,0
1757168823276.4277,-73,0
1757168823284.12,-73,0
1757168823291.8125,-71,0
1757168823299.505,-68,0
1757168823307.1973,-71,0
1757168823314.8896,-71,0
1757168823322.582,-71,0
1757168823330.2744,-71,0
1757168823337.9668,-68,0
1757168823345.6592,-66,0
1757168823353.3516,-66,0
1757168823361.044,-62,0
1757168823368.7363,-59,0
1757168823376.4287,-62,0
1757168823384.121,-59,0
1757168823391.8135,-57,0
1757168823399.5059,-59,0
1757168823407.1982,-57,0
1757168823414.8906,-52,0
1757168823422.583,-52,0
1757168823430.2754,-50,0
1757168823437.9678,-48,0
1757168823445.6602,-50,0
1757168823453.3525,-50,0
1757168823461.045,-45,0
1757168823533.2034,-45,0
1757168823540.8958,-45,0
1757168823548.5881,-45,0
1757168823556.2805,-45,0
1757168823563.973,-41,0
1757168823571.6653,-39,0
1757168823579.3577,-39,0
1757168823587.05,-43,0
1757168823594.7424,-55,0
1757168823602.4348,-57,0
1757168823610.1272,-41,0
1757168823617.8196,-20,0
1757168823625.512,-6,0
1757168823633.2043,2,0
1757168823640.8967,6,0
1757168823648.589,4,0
1757168823656.2815,-11,0
1757168823663.9739,-27,0
1757168823671.6663,-41,0
1757168823679.3586,-48,0
1757168823687.051,-43,0
1757168823694.7434,-34,0
1757168823702.4358,-39,0
1757168823710.1282,-82,0
1757168823717.8206,-128,0
1757168823725.513,32,0
1757168823733.2053,551,0
1757168823740.8977,1218,0
1757168823748.59,1579,0
1757168823756.2825,1135,0
1757168823763.9749,39,0
1757168823771.6672,-480,0
1757168823779.3596,-149,0
1757168823787.052,-34,0
1757168823794.7444,-218,0
1757168823802.4368,-181,0
1757168823810.1292,-103,0
1757168823817.8215,-140,0
1757168823825.514,-135,0
1757168823833.2063,-91,0
1757168823840.8987,-87,0
1757168823848.591,-87,0
1757168823856.2834,-64,0
1757168823863.9758,-52,0
1757168823871.6682,-43,0
1757168823879.3606,-20,0
1757168823887.053,0,0
1757168823894.7454,16,0
1757168823902.4377,34,0
1757168823910.1301,57,0
1757168823917.8225,80,0
1757168823925.515,103,0
1757168823933.2073,128,0
1757168823940.8997,144,0
1757168823948.592,156,0
1757168823956.2844,156,0
1757168823963.9768,151,0
1757168823971.6692,131,0
1757168823979.3616,105,0
1757168823987.054,71,0
1757168823994.7463,29,0
1757168824002.4387,-13,0
1757168824010.131,-55,0
1757168824017.8235,-87,0
1757168824025.5159,-108,0
1757168824033.2083,-124,0
1757168824040.9006,-137,0
1757168824048.593,-142,0
1757168824056.2854,-137,0
1757168824063.9778,-133,0
1757168824071.6702,-131,0
1757168824079.3625,-126,0
1757168824087.055,-124,0
1757168824028.8865,-121,0
1757168824036.5789,-112,0
1757168824044.2712,-103,0
1757168824051.9636,-101,0
1757168824059.656,-98,0
1757168824067.3484,-94,0
1757168824075.0408,-89,0
1757168824082.7332,-80,0
1757168824090.4255,-75,0
1757168824098.118,-71,0
1757168824105.8103,-71,0
1757168824113.5027,-80,0
1757168824121.195,-78,0
1757168824128.8875,-66,0
1757168824136.5798,-59,0
1757168824144.2722,-62,0
1757168824151.9646,-66,0
1757168824159.657,-80,0
1757168824167.3494,-85,0
1757168824175.0417,-68,0
1757168824182.7341,-62,0
1757168824190.4265,-64,0
1757168824198.119,-64,0
1757168824205.8113,-66,0
1757168824213.5037,-64,0
1757168824221.196,-57,0
1757168824228.8884,-55,0
1757168824236.5808,-55,0
1757168824244.2732,-57,0
1757168824251.9656,-57,0
1757168824259.658,-55,0
1757168824267.3503,-50,0
1757168824275.0427,-45,0
1757168824282.735,-45,0
1757168824290.4275,-48,0
1757168824298.1199,-50,0
1757168824305.8123,-45,0
1757168824313.5046,-43,0
1757168824321.197,-41,0
1757168824328.8894,-39,0
1757168824336.5818,-41,0
1757168824344.2742,-45,0
1757168824351.9666,-41,0
1757168824359.659,-36,0
1757168824367.3513,-36,0
1757168824375.0437,-36,0
1757168824382.736,-36,0
1757168824390.4285,-39,0
1757168824398.1208,-34,0
1757168824405.8132,-29,0
1757168824413.5056,-32,0
1757168824421.198,-32,0
1757168824428.8904,-34,0
1757168824436.5828,-36,0
1757168824444.2751,-32,0
1757168824451.9675,-27,0
1757168824459.66,-27,0
1757168824467.3523,-27,0
1757168824475.0447,-32,0
1757168824482.737,-32,0
1757168824490.4294,-27,0
1757168824498.1218,-22,0
1757168824505.8142,-22,0
1757168824513.5066,-13,0
1757168824521.199,0,0
1757168824528.8914,4,0
1757168824536.5837,11,0
1757168824544.2761,16,0
1757168824551.9685,4,0
1757168824559.661,-16,0
1757168824567.3533,-32,0
1757168824575.0457,-34,0
1757168824582.738,-27,0
1757168824613.4934,-22,0
1757168824621.1858,-27,0
1757168824628.8782,-64,0
1757168824636.5706,-137,0
1757168824644.263,-85,0
1757168824651.9553,328,0
1757168824659.6477,981,0
1757168824667.34,1489,0
1757168824675.0325,1388,0
1757168824682.7249,436,0
1757168824690.4172,-416,0
1757168824698.1096,-278,0
1757168824705.802,-6,0
1757168824713.4944,-174,0
1757168824721.1868,-227,0
1757168824728.8792,-119,0
1757168824736.5715,-131,0
1757168824744.264,-151,0
1757168824751.9563,-103,0
1757168824759.6487,-87,0
1757168824767.341,-96,0
1757168824775.0334,-78,0
1757168824782.7258,-57,0
1757168824790.4182,-48,0
1757168824798.1106,-29,0
1757168824805.803,-11,0
1757168824813.4954,2,0
1757168824821.1877,20,0
1757168824828.8801,41,0
1757168824836.5725,64,0
1757168824844.265,87,0
1757168824851.9573,108,0
1757168824859.6497,124,0
1757168824867.342,137,0
1757168824875.0344,142,0
1757168824882.7268,140,0
1757168824890.4192,128,0
1757168824898.1116,103,0
1757168824905.804,73,0
1757168824913.4963,41,0
1757168824921.1887,4,0
1757168824928.881,-36,0
1757168824936.5735,-71,0
1757168824944.2659,-98,0
1757168824951.9583,-119,0
1757168824959.6506,-133,0
1757168824967.343,-135,0
1757168824975.0354,-135,0
1757168824982.7278,-131,0
1757168824990.4202,-128,0
1757168824998.1125,-128,0
1757168825005.805,-121,0
1757168825013.4973,-117,0
1757168825021.1897,-112,0
1757168825028.882,-105,0
1757168825036.5745,-98,0
1757168825044.2668,-96,0
1757168825051.9592,-91,0
1757168825059.6516,-89,0
1757168825067.344,-82,0
1757168825075.0364,-75,0
1757168825082.7288,-75,0
1757168825090.4211,-75,0
1757168825098.1135,-73,0
1757168825105.806,-71,0
1757168825113.4983,-68,0
1757168825121.1907,-66,0
1757168825128.883,-66,0
1757168825136.5754,-68,0
1757168825144.2678,-78,0
1757168825151.9602,-85,0
1757168825159.6526,-80,0
1757168825167.345,-71,0
1757168825153.811,-73,0
1757168825161.5034,-73,0
1757168825169.1958,-68,0
1757168825176.8882,-71,0
1757168825184.5806,-71,0
1757168825192.273,-66,0
1757168825199.9653,-64,0
1757168825207.6577,-62,0
1757168825215.35,-64,0
1757168825223.0425,-66,0
1757168825230.7349,-64,0
1757168825238.4272,-68,0
1757168825246.1196,-80,0
1757168825253.812,-73,0
1757168825261.5044,-59,0
1757168825269.1968,-57,0
1757168825276.8892,-59,0
1757168825284.5815,-57,0
1757168825292.274,-52,0
1757168825299.9663,-48,0
1757168825307.6587,-48,0
1757168825315.351,-50,0
1757168825323.0435,-48,0
1757168825330.7358,-48,0
1757168825338.4282,-45,0
1757168825346.1206,-43,0
1757168825353.813,-43,0
1757168825361.5054,-43,0
1757168825369.1978,-43,0
1757168825376.8901,-43,0
1757168825384.5825,-43,0
1757168825392.275,-36,0
1757168825399.9673,-36,0
1757168825407.6597,-41,0
1757168825415.352,-39,0
1757168825423.0444,-36,0
1757168825430.7368,-34,0
1757168825438.4292,-34,0
1757168825446.1216,-36,0
1757168825453.814,-41,0
1757168825461.5063,-39,0
1757168825469.1987,-34,0
1757168825476.891,-29,0
1757168825484.5835,-29,0
1757168825492.276,-27,0
1757168825499.9683,-16,0
1757168825507.6606,-9,0
1757168825515.353,-6,0
1757168825523.0454,0,0
1757168825530.7378,9,0
1757168825538.4302,0,0
1757168825546.1226,-25,0
1757168825553.815,-43,0
1757168825561.5073,-41,0
1757168825569.1997,-29,0
1757168825576.892,-22,0
1757168825584.5845,-29,0
1757168825592.2769,-73,0
1757168825599.9692,-133,0
1757168825607.6616,-39,0
1757168825615.354,409,0
1757168825623.0464,1078,0
1757168825630.7388,1551,0
1757168825638.4312,1292,0
1757168825646.1235,223,0
1757168825653.816,-501,0
1757168825661.5083,-239,0
1757168825669.2007,-18,0
1757168825676.893,-204,0
1757168825684.5854,-213,0
1757168825692.2778,-114,0
1757168825699.9702,-142,0
1757168825707.6626,-147,0
1757168825737.6494,-96,0
1757168825745.3418,-91,0
1757168825753.0342,-98,0
1757168825760.7266,-75,0
1757168825768.419,-57,0
1757168825776.1113,-48,0
1757168825783.8037,-32,0
1757168825791.496,-11,0
1757168825799.1885,-2,0
1757168825806.8809,4,0
1757168825814.5732,25,0
1757168825822.2656,59,0
1757168825829.958,85,0
1757168825837.6504,103,0
1757168825845.3428,124,0
1757168825853.0352,140,0
1757168825860.7275,144,0
1757168825868.42,137,0
1757168825876.1123,124,0
1757168825883.8047,101,0
1757168825891.497,66,0
1757168825899.1895,29,0
1757168825906.8818,-9,0
1757168825914.5742,-48,0
1757168825922.2666,-85,0
1757168825929.959,-117,0
1757168825937.6514,-144,0
1757168825945.3438,-154,0
1757168825953.0361,-151,0
1757168825960.7285,-151,0
1757168825968.421,-151,0
1757168825976.1133,-149,0
1757168825983.8057,-144,0
1757168825991.498,-137,0
1757168825999.1904,-126,0
1757168826006.8828,-121,0
1757168826014.5752,-117,0
1757168826022.2676,-112,0
1757168826029.96,-114,0
1757168826037.6523,-105,0
1757168826045.3447,-89,0
1757168826053.037,-82,0
1757168826060.7295,-87,0
1757168826068.4219,-85,0
1757168826076.1143,-80,0
1757168826083.8066,-80,0
1757168826091.499,-75,0
1757168826099.1914,-75,0
1757168826106.8838,-78,0
1757168826114.5762,-78,0
1757168826122.2686,-85,0
1757168826129.961,-87,0
1757168826137.6533,-80,0
1757168826145.3457,-78,0
1757168826153.038,-85,0
1757168826160.7305,-94,0
1757168826168.4229,-98,0
1757168826176.1152,-87,0
1757168826183.8076,-78,0
1757168826191.5,-75,0
1757168826199.1924,-73,0
1757168826206.8848,-75,0
1757168826214.5771,-78,0
1757168826222.2695,-73,0
1757168826229.962,-64,0
1757168826237.6543,-62,0
1757168826245.3467,-64,0
1757168826253.039,-66,0
1757168826260.7314,-68,0
1757168826268.4238,-66,0
1757168826276.1162,-59,0
1757168826283.8086,-59,0
1757168826291.501,-59,0
1757168826282.622,-62,0
1757168826290.3145,-64,0
1757168826298.0068,-59,0
1757168826305.6992,-52,0
1757168826313.3916,-50,0
1757168826321.084,-50,0
1757168826328.7764,-55,0
1757168826336.4688,-57,0
1757168826344.1611,-52,0
1757168826351.8535,-45,0
1757168826359.546,-48,0
1757168826367.2383,-52,0
1757168826374.9307,-64,0
1757168826382.623,-66,0
1757168826390.3154,-50,0
1757168826398.0078,-41,0
1757168826405.7002,-45,0
1757168826413.3926,-43,0
1757168826421.085,-41,0
1757168826428.7773,-36,0
1757168826436.4697,-16,0
1757168826444.162,0,0
1757168826451.8545,2,0
1757168826459.5469,2,0
1757168826467.2393,-6,0
1757168826474.9316,-27,0
1757168826482.624,-36,0
1757168826490.3164,-36,0
1757168826498.0088,-34,0
1757168826505.7012,-34,0
1757168826513.3936,-39,0
1757168826521.086,-64,0
1757168826528.7783,-119,0
1757168826536.4707,-64,0
1757168826544.163,328,0
1757168826551.8555,990,0
1757168826559.5479,1515,0
1757168826567.2402,1393,0
1757168826574.9326,416,0
1757168826582.625,-446,0
1757168826590.3174,-308,0
1757168826598.0098,-22,0
1757168826605.7021,-174,0
1757168826613.3945,-223,0
1757168826621.087,-114,0
1757168826628.7793,-124,0
1757168826636.4717,-147,0
1757168826644.164,-108,0
1757168826651.8564,-103,0
1757168826659.5488,-103,0
1757168826667.2412,-73,0
1757168826674.9336,-55,0
1757168826682.626,-48,0
1757168826690.3184,-29,0
1757168826698.0107,-9,0
1757168826705.7031,6,0
1757168826713.3955,29,0
1757168826721.088,52,0
1757168826728.7803,71,0
1757168826736.4727,94,0
1757168826744.165,119,0
1757168826751.8574,140,0
1757168826759.5498,154,0
1757168826767.2422,163,0
1757168826774.9346,158,0
1757168826782.627,140,0
1757168826790.3193,112,0
1757168826798.0117,82,0
1757168826805.704,48,0
1757168826813.3965,6,0
1757168826821.0889,-41,0
1757168826828.7812,-80,0
1757168826836.4736,-108,0
1757168826817.6528,-121,0
1757168826825.3452,-131,0
1757168826833.0376,-135,0
1757168826840.73,-140,0
1757168826848.4224,-140,0
1757168826856.1147,-133,0
1757168826863.8071,-128,0
1757168826871.4995,-121,0
1757168826879.192,-119,0
1757168826886.8843,-124,0
1757168826894.5767,-124,0
1757168826902.269,-108,0
1757168826909.9614,-94,0
1757168826917.6538,-89,0
1757168826925.3462,-82,0
1757168826933.0386,-75,0
1757168826940.731,-73,0
1757168826948.4233,-68,0
1757168826956.1157,-64,0
1757168826963.808,-59,0
1757168826971.5005,-55,0
1757168826979.1929,-57,0
1757168826986.8853,-57,0
1757168826994.5776,-55,0
1757168827002.27,-57,0
1757168827009.9624,-57,0
1757168827017.6548,-55,0
1757168827025.3472,-59,0
1757168827033.0396,-62,0
1757168827040.732,-62,0
1757168827048.4243,-62,0
1757168827056.1167,-59,0
1757168827063.809,-57,0
1757168827071.5015,-57,0
1757168827079.1938,-55,0
1757168827086.8862,-55,0
1757168827094.5786,-55,0
1757168827102.271,-52,0
1757168827109.9634,-52,0
1757168827117.6558,-52,0
1757168827125.3481,-55,0
1757168827133.0405,-62,0
1757168827140.733,-62,0
1757168827148.4253,-50,0
1757168827156.1177,-48,0
1757168827163.81,-48,0
1757168827171.5024,-41,0
1757168827179.1948,-39,0
1757168827186.8872,-41,0
1757168827194.5796,-39,0
1757168827202.272,-36,0
1757168827209.9644,-36,0
1757168827217.6567,-34,0
1757168827225.349,-34,0
1757168827233.0415,-34,0
1757168827240.734,-29,0
1757168827248.4263,-32,0
1757168827256.1187,-34,0
1757168827263.811,-27,0
1757168827271.5034,-25,0
1757168827279.1958,-27,0
1757168827286.8882,-27,0
1757168827294.5806,-27,0
1757168827302.273,-27,0
1757168827309.9653,-22,0
1757168827317.6577,-22,0
1757168827325.35,-22,0
1757168827333.0425,-22,0
1757168827340.7349,-22,0
1757168827348.4272,-20,0
1757168827356.1196,-18,0
1757168827363.812,-16,0
1757168827371.5044,-20,0
1757168827359.0693,-20,0
1757168827366.7617,-16,0
1757168827374.454,-6,0
1757168827382.1465,9,0
1757168827389.8389,16,0
1757168827397.5312,18,0
1757168827405.2236,13,0
1757168827412.916,-4,0
1757168827420.6084,-16,0
1757168827428.3008,-20,0
1757168827435.9932,-22,0
1757168827443.6855,-22,0
1757168827451.378,-18,0
1757168827459.0703,-22,0
1757168827466.7627,-50,0
1757168827474.455,-110,0
1757168827482.1475,-59,0
1757168827489.8398,326,0
1757168827497.5322,970,0
1757168827505.2246,1496,0
1757168827512.917,1416,0
1757168827520.6094,487,0
1757168827528.3018,-367,0
1757168827535.9941,-266,0
1757168827543.6865,-4,0
1757168827551.379,-158,0
1757168827559.0713,-213,0
1757168827566.7637,-108,0
1757168827574.456,-117,0
1757168827582.1484,-144,0
1757168827589.8408,-103,0
1757168827597.5332,-85,0
1757168827605.2256,-85,0
1757168827612.918,-73,0
1757168827620.6104,-66,0
1757168827628.3027,-57,0
1757168827635.995,-32,0
1757168827643.6875,-9,0
1757168827651.38,6,0
1757168827659.0723,27,0
1757168827666.7646,48,0
1757168827674.457,68,0
1757168827682.1494,87,0
1757168827689.8418,110,0
1757168827697.5342,133,0
1757168827705.2266,147,0
1757168827712.919,151,0
1757168827720.6113,144,0
1757168827728.3037,128,0
1757168827735.996,108,0
1757168827743.6885,82,0
1757168827751.3809,52,0
1757168827759.0732,13,0
1757168827766.7656,-29,0
1757168827774.458,-66,0
1757168827782.1504,-89,0
1757168827789.8428,-105,0
1757168827797.5352,-119,0
1757168827805.2275,-128,0
1757168827812.92,-135,0
1757168827820.6123,-133,0
1757168827828.3047,-124,0
1757168827835.997,-117,0
1757168827843.6895,-112,0
1757168827851.3818,-110,0
1757168827859.0742,-110,0
1757168827866.7666,-103,0
1757168827874.459,-91,0
1757168827882.1514,-85,0
1757168827889.8438,-85,0
1757168827897.5361,-80,0
1757168827905.2285,-80,0
1757168827912.921,-75,0
1757168827988.8245,-66,0
1757168827996.5168,-64,0
1757168828004.2092,-66,0
1757168828011.9016,-73,0
1757168828019.594,-85,0
1757168828027.2864,-80,0
1757168828034.9788,-64,0
1757168828042.6711,-62,0
1757168828050.3635,-64,0
1757168828058.056,-64,0
1757168828065.7483,-68,0
1757168828073.4407,-68,0
1757168828081.133,-62,0
1757168828088.8254,-59,0
1757168828096.5178,-62,0
1757168828104.2102,-66,0
1757168828111.9026,-68,0
1757168828119.595,-64,0
1757168828127.2874,-59,0
1757168828134.9797,-55,0
1757168828142.672,-57,0
1757168828150.3645,-59,0
1757168828158.057,-62,0
1757168828165.7493,-55,0
1757168828173.4417,-52,0
1757168828181.134,-55,0
1757168828188.8264,-62,0
1757168828196.5188,-71,0
1757168828204.2112,-64,0
1757168828211.9036,-50,0
1757168828219.596,-48,0
1757168828227.2883,-48,0
1757168828234.9807,-48,0
1757168828242.673,-48,0
1757168828250.3655,-50,0
1757168828258.0579,-45,0
1757168828265.7502,-41,0
1757168828273.4426,-41,0
1757168828281.135,-41,0
1757168828288.8274,-43,0
1757168828296.5198,-45,0
1757168828304.2122,-43,0
1757168828311.9045,-41,0
1757168828319.597,-39,0
1757168828327.2893,-36,0
1757168828334.9817,-41,0
1757168828342.674,-43,0
1757168828350.3665,-39,0
1757168828358.0588,-34,0
1757168828365.7512,-39,0
1757168828373.4436,-41,0
1757168828381.136,-39,0
1757168828388.8284,-39,0
1757168828396.5208,-39,0
1757168828404.2131,-36,0
1757168828411.9055,-34,0
1757168828419.598,-34,0
1757168828427.2903,-39,0
1757168828434.9827,-36,0
1757168828442.675,-18,0
1757168828450.3674,-2,0
1757168828458.0598,2,0
1757168828465.7522,0,0
1757168828473.4446,0,0
1757168828481.137,-11,0
1757168828488.8293,-29,0
1757168828496.5217,-39,0
1757168828504.214,-36,0
1757168828511.9065,-36,0
1757168828519.5989,-36,0
1757168828527.2913,-45,0
1757168828534.9836,-87,0
1757168828542.676,-128,0
1757168828527.9265,18,0
1757168828535.619,514,0
1757168828543.3113,1167,0
1757168828551.0037,1544,0
1757168828558.696,1135,0
1757168828566.3884,59,0
1757168828574.0808,-491,0
1757168828581.7732,-190,0
1757168828589.4656,-62,0
1757168828597.158,-232,0
1757168828604.8503,-195,0
1757168828612.5427,-117,0
1757168828620.235,-165,0
1757168828627.9275,-174,0
1757168828635.6199,-124,0
1757168828643.3123,-105,0
1757168828651.0046,-101,0
1757168828658.697,-78,0
1757168828666.3894,-59,0
1757168828674.0818,-57,0
1757168828681.7742,-52,0
1757168828689.4666,-27,0
1757168828697.159,4,0
1757168828704.8513,25,0
1757168828712.5437,39,0
1757168828720.236,59,0
1757168828727.9285,82,0
1757168828735.6208,103,0
1757168828743.3132,121,0
1757168828751.0056,133,0
1757168828758.698,133,0
1757168828766.3904,128,0
1757168828774.0828,112,0
1757168828781.7751,82,0
1757168828789.4675,55,0
1757168828797.16,22,0
1757168828804.8523,-20,0
1757168828812.5447,-68,0
1757168828820.237,-103,0
1757168828827.9294,-126,0
1757168828835.6218,-144,0
1757168828843.3142,-160,0
1757168828851.0066,-167,0
1757168828858.699,-170,0
1757168828866.3914,-163,0
1757168828874.0837,-154,0
1757168828881.7761,-149,0
1757168828889.4685,-149,0
1757168828897.161,-149,0
1757168828904.8533,-142,0
1757168828912.5457,-133,0
1757168828920.238,-131,0
1757168828927.9304,-124,0
1757168828935.6228,-119,0
1757168828943.3152,-117,0
1757168828951.0076,-112,0
1757168828958.7,-108,0
1757168828966.3923,-108,0
1757168828974.0847,-103,0
1757168828981.777,-98,0
1757168828989.4695,-105,0
1757168828997.1619,-103,0
1757168829004.8542,-101,0
1757168829012.5466,-108,0
1757168829020.239,-110,0
1757168829027.9314,-108,0
1757168829035.6238,-110,0
1757168829043.3162,-108,0
1757168829051.0085,-108,0
1757168829058.701,-114,0
1757168829066.3933,-114,0
1757168829074.0857,-112,0
1757168829081.778,-117,0
1757168829115.4197,-114,0
1757168829123.112,-110,0
1757168829130.8044,-110,0
1757168829138.4968,-114,0
1757168829146.1892,-117,0
1757168829153.8816,-114,0
1757168829161.574,-108,0
1757168829169.2664,-105,0
1757168829176.9587,-112,0
1757168829184.6511,-121,0
1757168829192.3435,-133,0
1757168829200.036,-137,0
1757168829207.7283,-131,0
1757168829215.4207,-119,0
1757168829223.113,-112,0
1757168829230.8054,-114,0
1757168829238.4978,-114,0
1757168829246.1902,-110,0
1757168829253.8826,-101,0
1757168829261.575,-101,0
1757168829269.2673,-103,0
1757168829276.9597,-105,0
1757168829284.652,-105,0
1757168829292.3445,-101,0
1757168829300.0369,-96,0
1757168829307.7292,-98,0
1757168829315.4216,-103,0
1757168829323.114,-103,0
1757168829330.8064,-101,0
1757168829338.4988,-98,0
1757168829346.1912,-96,0
1757168829353.8835,-96,0
1757168829361.576,-101,0
1757168829369.2683,-96,0
1757168829376.9607,-85,0
1757168829384.653,-71,0
1757168829392.3455,-64,0
1757168829400.0378,-64,0
1757168829407.7302,-62,0
1757168829415.4226,-73,0
1757168829423.115,-96,0
1757168829430.8074,-103,0
1757168829438.4998,-96,0
1757168829446.1921,-96,0
1757168829453.8845,-98,0
1757168829461.577,-101,0
1757168829469.2693,-126,0
1757168829476.9617,-179,0
1757168829484.654,-126,0
1757168829492.3464,250,0
1757168829500.0388,908,0
1757168829507.7312,1439,0
1757168829515.4236,1324,0
1757168829523.116,358,0
1757168829530.8083,-510,0
1757168829538.5007,-390,0
1757168829546.193,-94,0
1757168829553.8855,-229,0
1757168829561.578,-282,0
1757168829569.2703,-172,0
1757168829576.9626,-181,0
1757168829584.655,-209,0
1757168829592.3474,-170,0
1757168829600.0398,-151,0
1757168829607.7322,-151,0
1757168829615.4246,-128,0
1757168829623.117,-110,0
1757168829630.8093,-103,0
1757168829638.5017,-87,0
1757168829646.194,-68,0
1757168829653.8865,-48,0
1757168829661.5789,-29,0
1757168829669.2712,-4,0
1757168829654.7283,18,0
1757168829662.4207,36,0
1757168829670.113,57,0
1757168829677.8054,85,0
1757168829685.4978,94,0
1757168829693.1902,94,0
1757168829700.8826,89,0
1757168829708.575,71,0
1757168829716.2673,41,0
1757168829723.9597,20,0
1757168829731.652,-6,0
1757168829739.3445,-50,0
1757168829747.0369,-101,0
1757168829754.7292,-151,0
1757168829762.4216,-181,0
1757168829770.114,-181,0
1757168829777.8064,-183,0
1757168829785.4988,-193,0
1757168829793.1912,-195,0
1757168829800.8835,-195,0
1757168829808.576,-190,0
1757168829816.2683,-174,0
1757168829823.9607,-167,0
1757168829831.653,-160,0
1757168829839.3455,-156,0
1757168829847.0378,-154,0
1757168829854.7302,-142,0
1757168829862.4226,-131,0
1757168829870.115,-126,0
1757168829877.8074,-117,0
1757168829885.4998,-112,0
1757168829893.1921,-112,0
1757168829900.8845,-105,0
1757168829908.577,-96,0
1757168829916.2693,-91,0
1757168829923.9617,-89,0
1757168829931.654,-89,0
1757168829939.3464,-91,0
1757168829947.0388,-89,0
1757168829954.7312,-82,0
1757168829962.4236,-82,0
1757168829970.116,-82,0
1757168829977.8083,-85,0
1757168829985.5007,-87,0
1757168829993.193,-82,0
1757168830000.8855,-75,0
1757168830008.578,-75,0
1757168830016.2703,-75,0
1757168830023.9626,-75,0
1757168830031.655,-75,0
1757168830039.3474,-71,0
1757168830047.0398,-66,0
1757168830054.7322,-66,0
1757168830062.4246,-64,0
1757168830070.117,-66,0
1757168830077.8093,-68,0
1757168830085.5017,-62,0
1757168830093.194,-57,0
1757168830100.8865,-57,0
1757168830108.5789,-55,0
1757168830116.2712,-57,0
1757168830123.9636,-57,0
1757168830131.656,-50,0
1757168830139.3484,-48,0
1757168830147.0408,-45,0
1757168830154.7332,-48,0
1757168830162.4255,-50,0
1757168830170.118,-48,0
1757168830177.8103,-43,0
1757168830185.5027,-48,0
1757168830193.195,-55,0
1757168830200.8875,-52,0
1757168830208.5798,-45,0
1757168830193.6956,-43,0
1757168830201.388,-41,0
1757168830209.0803,-36,0
1757168830216.7727,-34,0
1757168830224.465,-34,0
1757168830232.1575,-36,0
1757168830239.8499,-36,0
1757168830247.5422,-29,0
1757168830255.2346,-27,0
1757168830262.927,-29,0
1757168830270.6194,-39,0
1757168830278.3118,-45,0
1757168830286.0042,-25,0
1757168830293.6965,4,0
1757168830301.389,9,0
1757168830309.0813,11,0
1757168830316.7737,13,0
1757168830324.466,-2,0
1757168830332.1584,-22,0
1757168830339.8508,-27,0
1757168830347.5432,-25,0
1757168830355.2356,-22,0
1757168830362.928,-25,0
1757168830370.6204,-29,0
1757168830378.3127,-62,0
1757168830386.0051,-121,0
1757168830393.6975,-62,0
1757168830401.39,342,0
1757168830409.0823,993,0
1757168830416.7747,1510,0
1757168830424.467,1402,0
1757168830432.1594,448,0
1757168830439.8518,-388,0
1757168830447.5442,-264,0
1757168830455.2366,-11,0
1757168830462.929,-174,0
1757168830470.6213,-223,0
1757168830478.3137,-117,0
1757168830486.006,-126,0
1757168830493.6985,-151,0
1757168830501.3909,-110,0
1757168830509.0833,-91,0
1757168830516.7756,-96,0
1757168830524.468,-78,0
1757168830532.1604,-59,0
1757168830539.8528,-50,0
1757168830547.5452,-36,0
1757168830555.2375,-16,0
1757168830562.93,0,0
1757168830570.6223,20,0
1757168830578.3147,43,0
1757168830586.007,64,0
1757168830593.6995,82,0
1757168830601.3918,105,0
1757168830609.0842,124,0
1757168830616.7766,137,0
1757168830624.469,144,0
1757168830632.1614,140,0
1757168830639.8538,124,0
1757168830647.5461,98,0
1757168830655.2385,73,0
1757168830662.931,41,0
1757168830670.6233,0,0
1757168830678.3157,-48,0
1757168830686.008,-82,0
1757168830693.7004,-101,0
1757168830701.3928,-119,0
1757168830709.0852,-131,0
1757168830716.7776,-133,0
1757168830724.47,-137,0
1757168830732.1624,-135,0
1757168830739.8547,-128,0
1757168830747.547,-124,0
1757168830732.9917,-119,0
1757168830740.684,-112,0
1757168830748.3765,-110,0
1757168830756.0688,-103,0
1757168830763.7612,-96,0
1757168830771.4536,-96,0
1757168830779.146,-89,0
1757168830786.8384,-89,0
1757168830794.5308,-98,0
1757168830802.2231,-89,0
1757168830809.9155,-71,0
1757168830817.608,-68,0
1757168830825.3003,-66,0
1757168830832.9927,-59,0
1757168830840.685,-59,0
1757168830848.3774,-57,0
1757168830856.0698,-55,0
1757168830863.7622,-52,0
1757168830871.4546,-52,0
1757168830879.147,-55,0
1757168830886.8394,-55,0
1757168830894.5317,-52,0
1757168830902.224,-52,0
1757168830909.9165,-55,0
1757168830917.609,-55,0
1757168830925.3013,-59,0
1757168830932.9937,-57,0
1757168830940.686,-52,0
1757168830948.3784,-52,0
1757168830956.0708,-52,0
1757168830963.7632,-50,0
1757168830971.4556,-45,0
1757168830979.148,-48,0
1757168830986.8403,-48,0
1757168830994.5327,-41,0
1757168831002.225,-43,0
1757168831009.9175,-48,0
1757168831017.6099,-45,0
1757168831025.3022,-43,0
1757168831032.9946,-43,0
1757168831040.687,-43,0
1757168831048.3794,-43,0
1757168831056.0718,-43,0
1757168831063.7642,-41,0
1757168831071.4565,-39,0
1757168831079.149,-34,0
1757168831086.8413,-34,0
1757168831094.5337,-39,0
1757168831102.226,-39,0
1757168831109.9185,-39,0
1757168831117.6108,-36,0
1757168831125.3032,-34,0
1757168831132.9956,-32,0
1757168831140.688,-36,0
1757168831148.3804,-36,0
1757168831156.0728,-39,0
1757168831163.7651,-43,0
1757168831171.4575,-39,0
1757168831179.15,-32,0
1757168831186.8423,-32,0
1757168831194.5347,-32,0
1757168831202.227,-27,0
1757168831209.9194,-25,0
1757168831217.6118,-25,0
1757168831225.3042,-22,0
1757168831232.9966,-22,0
1757168831240.689,-20,0
1757168831248.3813,-6,0
1757168831256.0737,9,0
1757168831263.766,16,0
1757168831271.4585,16,0
1757168831279.151,6,0
1757168831286.8433,-11,0
1757168831318.8086,-27,0
1757168831326.501,-29,0
1757168831334.1934,-22,0
1757168831341.8857,-22,0
1757168831349.5781,-34,0
1757168831357.2705,-59,0
1757168831364.963,-108,0
1757168831372.6553,-121,0
1757168831380.3477,98,0
1757168831388.04,664,0
1757168831395.7324,1305,0
1757168831403.4248,1554,0
1757168831411.1172,949,0
1757168831418.8096,-112,0
1757168831426.502,-423,0
1757168831434.1943,-78,0
1757168831441.8867,-68,0
1757168831449.579,-232,0
1757168831457.2715,-156,0
1757168831464.9639,-103,0
1757168831472.6562,-149,0
1757168831480.3486,-126,0
1757168831488.041,-91,0
1757168831495.7334,-96,0
1757168831503.4258,-85,0
1757168831511.1182,-62,0
1757168831518.8105,-52,0
1757168831526.503,-39,0
1757168831534.1953,-22,0
1757168831541.8877,-6,0
1757168831549.58,11,0
1757168831557.2725,34,0
1757168831564.9648,55,0
1757168831572.6572,75,0
1757168831580.3496,96,0
1757168831588.042,114,0
1757168831595.7344,131,0
1757168831603.4268,140,0
1757168831611.1191,142,0
1757168831618.8115,133,0
1757168831626.504,110,0
1757168831634.1963,85,0
1757168831641.8887,57,0
1757168831649.581,20,0
1757168831657.2734,-22,0
1757168831664.9658,-66,0
1757168831672.6582,-101,0
1757168831680.3506,-124,0
1757168831688.043,-142,0
1757168831695.7354,-156,0
1757168831703.4277,-151,0
1757168831711.12,-142,0
1757168831718.8125,-147,0
1757168831726.505,-149,0
1757168831734.1973,-137,0
1757168831741.8896,-128,0
1757168831749.582,-121,0
1757168831757.2744,-114,0
1757168831764.9668,-110,0
1757168831772.6592,-105,0
1757168831780.3516,-98,0
1757168831788.044,-89,0
1757168831795.7363,-82,0
1757168831803.4287,-87,0
1757168831811.121,-87,0
1757168831818.8135,-78,0
1757168831826.5059,-68,0
1757168831834.1982,-71,0
1757168831841.8906,-68,0
1757168831849.583,-71,0
1757168831857.2754,-73,0
1757168831864.9678,-66,0
1757168831872.6602,-62,0
1757168831903.777,-62,0
1757168831911.4695,-66,0
1757168831919.1619,-73,0
1757168831926.8542,-75,0
1757168831934.5466,-68,0
1757168831942.239,-68,0
1757168831949.9314,-68,0
1757168831957.6238,-68,0
1757168831965.3162,-82,0
1757168831973.0085,-85,0
1757168831980.701,-66,0
1757168831988.3933,-52,0
1757168831996.0857,-59,0
1757168832003.778,-62,0
1757168832011.4705,-59,0
1757168832019.1628,-59,0
1757168832026.8552,-55,0
1757168832034.5476,-48,0
1757168832042.24,-50,0
1757168832049.9324,-48,0
1757168832057.6248,-48,0
1757168832065.3171,-50,0
1757168832073.0095,-48,0
1757168832080.702,-45,0
1757168832088.3943,-43,0
1757168832096.0867,-41,0
1757168832103.779,-41,0
1757168832111.4714,-41,0
1757168832119.1638,-41,0
1757168832126.8562,-39,0
1757168832134.5486,-34,0
1757168832142.241,-34,0
1757168832149.9333,-41,0
1757168832157.6257,-39,0
1757168832165.318,-32,0
1757168832173.0105,-25,0
1757168832180.703,-25,0
1757168832188.3953,-29,0
1757168832196.0876,-34,0
1757168832203.78,-29,0
1757168832211.4724,-13,0
1757168832219.1648,-2,0
1757168832226.8572,-6,0
1757168832234.5496,-2,0
1757168832242.242,6,0
1757168832249.9343,-6,0
1757168832257.6267,-27,0
1757168832265.319,-29,0
1757168832273.0115,-25,0
1757168832280.7039,-27,0
1757168832288.3962,-27,0
1757168832296.0886,-27,0
1757168832303.781,-62,0
1757168832311.4734,-108,0
1757168832319.1658,13,0
1757168832326.8582,494,0
1757168832334.5505,1170,0
1757168832342.243,1574,0
1757168832349.9353,1188,0
1757168832357.6277,94,0
1757168832365.32,-524,0
1757168832373.0125,-213,0
1757168832380.7048,-27,0
1757168832388.3972,-197,0
1757168832396.0896,-177,0
1757168832403.782,-89,0
1757168832411.4744,-128,0
1757168832419.1667,-133,0
1757168832426.8591,-87,0
1757168832434.5515,-80,0
1757168832442.244,-80,0
1757168832449.9363,-52,0
1757168832457.6287,-41,0
1757168832443.9106,-32,0
1757168832451.603,-13,0
1757168832459.2954,6,0
1757168832466.9878,27,0
1757168832474.6802,48,0
1757168832482.3726,68,0
1757168832490.065,91,0
1757168832497.7573,114,0
1757168832505.4497,140,0
1757168832513.142,160,0
1757168832520.8345,174,0
1757168832528.5269,172,0
1757168832536.2192,156,0
1757168832543.9116,140,0
1757168832551.604,119,0
1757168832559.2964,87,0
1757168832566.9888,48,0
1757168832574.6812,-2,0
1757168832582.3735,-52,0
1757168832590.066,-91,0
1757168832597.7583,-114,0
1757168832605.4507,-131,0
1757168832613.143,-140,0
1757168832620.8354,-147,0
1757168832628.5278,-147,0
1757168832636.2202,-142,0
1757168832643.9126,-137,0
1757168832651.605,-128,0
1757168832659.2974,-124,0
1757168832666.9897,-121,0
1757168832674.6821,-112,0
1757168832682.3745,-103,0
1757168832690.067,-101,0
1757168832697.7593,-96,0
1757168832705.4517,-96,0
1757168832713.144,-94,0
1757168832720.8364,-78,0
1757168832728.5288,-68,0
1757168832736.2212,-68,0
1757168832743.9136,-62,0
1757168832751.606,-59,0
1757168832759.2983,-59,0
1757168832766.9907,-52,0
1757168832774.683,-50,0
1757168832782.3755,-55,0
1757168832790.0679,-52,0
1757168832797.7603,-55,0
1757168832805.4526,-57,0
1757168832813.145,-55,0
1757168832820.8374,-52,0
1757168832828.5298,-55,0
1757168832836.2222,-57,0
1757168832843.9146,-57,0
1757168832851.607,-55,0
1757168832859.2993,-50,0
1757168832866.9917,-48,0
1757168832874.684,-48,0
1757168832882.3765,-48,0
1757168832890.0688,-48,0
1757168832897.7612,-45,0
1757168832905.4536,-45,0
1757168832913.146,-43,0
1757168832920.8384,-41,0
1757168832928.5308,-41,0
1757168832936.2231,-41,0
1757168832943.9155,-36,0
1757168832951.608,-34,0
1757168832959.3003,-36,0
1757168832966.9927,-34,0
1757168832974.685,-32,0
1757168832982.3774,-34,0
1757168832990.0698,-32,0
1757168832997.7622,-27,0
1757168832985.6267,-27,0
1757168832993.319,-29,0
1757168833001.0115,-29,0
1757168833008.7039,-29,0
1757168833016.3962,-29,0
1757168833024.0886,-25,0
1757168833031.781,-20,0
1757168833039.4734,-25,0
1757168833047.1658,-34,0
1757168833054.8582,-41,0
1757168833062.5505,-22,0
1757168833070.243,4,0
1757168833077.9353,11,0
1757168833085.6277,16,0
1757168833093.32,20,0
1757168833101.0125,16,0
1757168833108.7048,-2,0
1757168833116.3972,-16,0
1757168833124.0896,-20,0
1757168833131.782,-18,0
1757168833139.4744,-16,0
1757168833147.1667,-13,0
1757168833154.8591,-29,0
1757168833162.5515,-91,0
1757168833170.244,-105,0
1757168833177.9363,174,0
1757168833185.6287,790,0
1757168833193.321,1416,0
1757168833201.0134,1570,0
1757168833208.7058,841,0
1757168833216.3982,-206,0
1757168833224.0906,-388,0
1757168833231.783,-39,0
1757168833239.4753,-87,0
1757168833247.1677,-223,0
1757168833254.86,-131,0
1757168833262.5525,-98,0
1757168833270.2449,-142,0
1757168833277.9373,-114,0
1757168833285.6296,-78,0
1757168833293.322,-80,0
1757168833301.0144,-68,0
1757168833308.7068,-45,0
1757168833316.3992,-41,0
1757168833324.0916,-32,0
1757168833331.784,-6,0
1757168833339.4763,16,0
1757168833347.1687,32,0
1757168833354.861,52,0
1757168833362.5535,71,0
1757168833370.2458,94,0
1757168833377.9382,117,0
1757168833385.6306,140,0
1757168833393.323,156,0
1757168833401.0154,165,0
1757168833408.7078,163,0
1757168833416.4001,149,0
1757168833424.0925,131,0
1757168833431.785,103,0
1757168833439.4773,68,0
1757168833447.1697,27,0
1757168833454.862,-20,0
1757168833462.5544,-59,0
1757168833470.2468,-82,0
1757168833477.9392,-103,0
1757168833485.6316,-117,0
1757168833493.324,-126,0
1757168833501.0164,-133,0
1757168833508.7087,-128,0
1757168833516.4011,-119,0
1757168833524.0935,-114,0
1757168833531.786,-110,0
1757168833539.4783,-105,0
1757168833573.3882,-105,0
1757168833581.0806,-98,0
1757168833588.773,-91,0
1757168833596.4653,-87,0
1757168833604.1577,-85,0
1757168833611.85,-89,0
1757168833619.5425,-98,0
1757168833627.2349,-87,0
1757168833634.9272,-66,0
1757168833642.6196,-62,0
1757168833650.312,-62,0
1757168833658.0044,-59,0
1757168833665.6968,-59,0
1757168833673.3892,-55,0
1757168833681.0815,-50,0
1757168833688.774,-50,0
1757168833696.4663,-50,0
1757168833704.1587,-52,0
1757168833711.851,-59,0
1757168833719.5435,-64,0
1757168833727.2358,-62,0
1757168833734.9282,-55,0
1757168833742.6206,-52,0
1757168833750.313,-55,0
1757168833758.0054,-55,0
1757168833765.6978,-50,0
1757168833773.3901,-45,0
1757168833781.0825,-43,0
1757168833788.775,-41,0
1757168833796.4673,-45,0
1757168833804.1597,-48,0
1757168833811.852,-41,0
1757168833819.5444,-36,0
1757168833827.2368,-39,0
1757168833834.9292,-36,0
1757168833842.6216,-36,0
1757168833850.314,-39,0
1757168833858.0063,-34,0
1757168833865.6987,-29,0
1757168833873.391,-32,0
1757168833881.0835,-32,0
1757168833888.776,-34,0
1757168833896.4683,-34,0
1757168833904.1606,-32,0
1757168833911.853,-29,0
1757168833919.5454,-27,0
1757168833927.2378,-29,0
1757168833934.9302,-32,0
1757168833942.6226,-32,0
1757168833950.315,-27,0
1757168833958.0073,-27,0
1757168833965.6997,-27,0
1757168833973.392,-27,0
1757168833981.0845,-29,0
1757168833988.7769,-29,0
1757168833996.4692,-25,0
1757168834004.1616,-22,0
1757168834011.854,-22,0
1757168834019.5464,-25,0
1757168834027.2388,-27,0
1757168834034.9312,-25,0
1757168834042.6235,-20,0
1757168834050.316,-18,0
1757168834058.0083,-18,0
1757168834065.7007,-18,0
1757168834073.393,-6,0
1757168834081.0854,6,0
1757168834088.7778,13,0
1757168834096.4702,18,0
1757168834104.1626,18,0
1757168834111.855,4,0
1757168834119.5474,-16,0
1757168834127.2397,-27,0
1757168834109.677,-25,0
1757168834117.3694,-20,0
1757168834125.0618,-20,0
1757168834132.7542,-29,0
1757168834140.4465,-66,0
1757168834148.139,-124,0
1757168834155.8313,-22,0
1757168834163.5237,432,0
1757168834171.216,1103,0
1757168834178.9084,1570,0
1757168834186.6008,1294,0
1757168834194.2932,248,0
1757168834201.9856,-441,0
1757168834209.678,-202,0
1757168834217.3704,-16,0
1757168834225.0627,-200,0
1757168834232.7551,-202,0
1757168834240.4475,-103,0
1757168834248.14,-128,0
1757168834255.8323,-135,0
1757168834263.5247,-91,0
1757168834271.217,-87,0
1757168834278.9094,-87,0
1757168834286.6018,-64,0
1757168834294.2942,-45,0
1757168834301.9866,-36,0
1757168834309.679,-22,0
1757168834317.3713,-4,0
1757168834325.0637,11,0
1757168834332.756,29,0
1757168834340.4485,55,0
1757168834348.1409,75,0
1757168834355.8333,94,0
1757168834363.5256,112,0
1757168834371.218,131,0
1757168834378.9104,144,0
1757168834386.6028,149,0
1757168834394.2952,144,0
1757168834401.9875,126,0
1757168834409.68,103,0
1757168834417.3723,75,0
1757168834425.0647,43,0
1757168834432.757,6,0
1757168834440.4495,-32,0
1757168834448.1418,-68,0
1757168834455.8342,-96,0
1757168834463.5266,-112,0
1757168834471.219,-124,0
1757168834478.9114,-128,0
1757168834486.6038,-128,0
1757168834494.2961,-128,0
1757168834501.9885,-121,0
1757168834509.681,-114,0
1757168834517.3733,-114,0
1757168834525.0657,-112,0
1757168834532.758,-105,0
1757168834540.4504,-101,0
1757168834548.1428,-91,0
1757168834555.8352,-85,0
1757168834563.5276,-87,0
1757168834571.22,-82,0
1757168834578.9124,-73,0
1757168834586.6047,-71,0
1757168834594.297,-68,0
1757168834601.9895,-64,0
1757168834609.682,-62,0
1757168834617.3743,-59,0
1757168834625.0667,-62,0
1757168834632.759,-64,0
1757168834640.4514,-59,0
1757168834648.1438,-59,0
1757168834655.8362,-64,0
1757168834663.5286,-64,0
1757168834648.8718,-64,0
1757168834656.5642,-64,0
1757168834664.2566,-62,0
1757168834671.949,-68,0
1757168834679.6414,-80,0
1757168834687.3337,-75,0
1757168834695.0261,-73,0
1757168834702.7185,-78,0
1757168834710.411,-66,0
1757168834718.1033,-57,0
1757168834725.7957,-62,0
1757168834733.488,-57,0
1757168834741.1804,-52,0
1757168834748.8728,-52,0
1757168834756.5652,-48,0
1757168834764.2576,-45,0
1757168834771.95,-48,0
1757168834779.6423,-48,0
1757168834787.3347,-43,0
1757168834795.027,-39,0
1757168834802.7195,-34,0
1757168834810.4119,-39,0
1757168834818.1042,-45,0
1757168834825.7966,-43,0
1757168834833.489,-36,0
1757168834841.1814,-36,0
1757168834848.8738,-39,0
1757168834856.5662,-36,0
1757168834864.2585,-36,0
1757168834871.951,-36,0
1757168834879.6433,-36,0
1757168834887.3357,-29,0
1757168834895.028,-27,0
1757168834902.7205,-32,0
1757168834910.4128,-34,0
1757168834918.1052,-32,0
1757168834925.7976,-32,0
1757168834933.49,-32,0
1757168834941.1824,-27,0
1757168834948.8748,-29,0
1757168834956.5671,-29,0
1757168834964.2595,-27,0
1757168834971.952,-27,0
1757168834979.6443,-27,0
1757168834987.3367,-27,0
1757168834995.029,-27,0
1757168835002.7214,-25,0
1757168835010.4138,-22,0
1757168835018.1062,-16,0
1757168835025.7986,2,0
1757168835033.491,11,0
1757168835041.1833,11,0
1757168835048.8757,9,0
1757168835056.568,2,0
1757168835064.2605,-16,0
1757168835071.953,-29,0
1757168835079.6453,-27,0
1757168835087.3376,-20,0
1757168835095.03,-22,0
1757168835102.7224,-32,0
1757168835110.4148,-57,0
1757168835118.1072,-105,0
1757168835125.7996,-27,0
1757168835133.492,393,0
1757168835141.1843,1050,0
1757168835148.8767,1528,0
1757168835156.569,1328,0
1757168835164.2615,319,0
1757168835171.9539,-464,0
1757168835179.6462,-287,0
1757168835187.3386,-43,0
1757168835195.031,-195,0
1757168835202.7234,-209,0
1757168835280.511,-105,0
1757168835288.2034,-126,0
1757168835295.8958,-147,0
1757168835303.5881,-121,0
1757168835311.2805,-112,0
1757168835318.973,-94,0
1757168835326.6653,-64,0
1757168835334.3577,-50,0
1757168835342.05,-43,0
1757168835349.7424,-29,0
1757168835357.4348,-9,0
1757168835365.1272,16,0
1757168835372.8196,34,0
1757168835380.512,55,0
1757168835388.2043,78,0
1757168835395.8967,96,0
1757168835403.589,119,0
1757168835411.2815,144,0
1757168835418.9739,158,0
1757168835426.6663,163,0
1757168835434.3586,156,0
1757168835442.051,142,0
1757168835449.7434,119,0
1757168835457.4358,91,0
1757168835465.1282,55,0
1757168835472.8206,6,0
1757168835480.513,-41,0
1757168835488.2053,-82,0
1757168835495.8977,-108,0
1757168835503.59,-124,0
1757168835511.2825,-137,0
1757168835518.9749,-144,0
1757168835526.6672,-147,0
1757168835534.3596,-149,0
1757168835542.052,-140,0
1757168835549.7444,-128,0
1757168835557.4368,-119,0
1757168835565.1292,-117,0
1757168835572.8215,-124,0
1757168835580.514,-119,0
1757168835588.2063,-105,0
1757168835595.8987,-94,0
1757168835603.591,-94,0
1757168835611.2834,-89,0
1757168835618.9758,-80,0
1757168835626.6682,-78,0
1757168835634.3606,-73,0
1757168835642.053,-64,0
1757168835649.7454,-62,0
1757168835657.4377,-64,0
1757168835665.1301,-66,0
1757168835672.8225,-66,0
1757168835680.515,-64,0
1757168835688.2073,-62,0
1757168835695.8997,-62,0
1757168835703.592,-64,0
1757168835711.2844,-68,0
1757168835718.9768,-71,0
1757168835726.6692,-66,0
1757168835734.3616,-62,0
1757168835742.054,-64,0
1757168835749.7463,-68,0
1757168835757.4387,-75,0
1757168835765.131,-75,0
1757168835772.8235,-62,0
1757168835780.5159,-55,0
1757168835788.2083,-55,0
1757168835795.9006,-55,0
1757168835803.593,-57,0
1757168835811.2854,-57,0
1757168835818.9778,-52,0
1757168835826.6702,-48,0
1757168835834.3625,-48,0
1757168835819.1577,-48,0
1757168835826.85,-50,0
1757168835834.5425,-48,0
1757168835842.2349,-43,0
1757168835849.9272,-41,0
1757168835857.6196,-41,0
1757168835865.312,-41,0
1757168835873.0044,-43,0
1757168835880.6968,-43,0
1757168835888.3892,-39,0
1757168835896.0815,-36,0
1757168835903.774,-36,0
1757168835911.4663,-45,0
1757168835919.1587,-52,0
1757168835926.851,-43,0
1757168835934.5435,-32,0
1757168835942.2358,-32,0
1757168835949.9282,-29,0
1757168835957.6206,-27,0
1757168835965.313,-29,0
1757168835973.0054,-27,0
1757168835980.6978,-20,0
1757168835988.3901,-6,0
1757168835996.0825,4,0
1757168836003.775,9,0
1757168836011.4673,16,0
1757168836019.1597,18,0
1757168836026.852,2,0
1757168836034.5444,-18,0
1757168836042.2368,-25,0
1757168836049.9292,-20,0
1757168836057.6216,-20,0
1757168836065.314,-20,0
1757168836073.0063,-27,0
1757168836080.6987,-73,0
1757168836088.391,-105,0
1757168836096.0835,96,0
1757168836103.776,662,0
1757168836111.4683,1317,0
1757168836119.1606,1581,0
1757168836126.853,1002,0
1757168836134.5454,-91,0
1757168836142.2378,-466,0
1757168836149.9302,-103,0
1757168836157.6226,-50,0
1757168836165.315,-220,0
1757168836173.0073,-154,0
1757168836180.6997,-94,0
1757168836188.392,-137,0
1757168836196.0845,-119,0
1757168836203.7769,-78,0
1757168836211.4692,-80,0
1757168836219.1616,-73,0
1757168836226.854,-52,0
1757168836234.5464,-48,0
1757168836242.2388,-43,0
1757168836249.9312,-18,0
1757168836257.6235,9,0
1757168836265.316,27,0
1757168836273.0083,50,0
1757168836280.7007,73,0
1757168836288.393,96,0
1757168836296.0854,119,0
1757168836303.7778,144,0
1757168836311.4702,165,0
1757168836319.1626,174,0
1757168836326.855,174,0
1757168836334.5474,165,0
1757168836342.2397,144,0
1757168836349.9321,117,0
1757168836357.6245,82,0
1757168836365.317,39,0
1757168836373.0093,-9,0
1757168836359.0886,-48,0
1757168836366.781,-82,0
1757168836374.4734,-105,0
1757168836382.1658,-119,0
1757168836389.8582,-131,0
1757168836397.5505,-131,0
1757168836405.243,-128,0
1757168836412.9353,-126,0
1757168836420.6277,-119,0
1757168836428.32,-124,0
1757168836436.0125,-135,0
1757168836443.7048,-119,0
1757168836451.3972,-98,0
1757168836459.0896,-98,0
1757168836466.782,-94,0
1757168836474.4744,-85,0
1757168836482.1667,-80,0
1757168836489.8591,-71,0
1757168836497.5515,-64,0
1757168836505.244,-59,0
1757168836512.9363,-57,0
1757168836520.6287,-52,0
1757168836528.321,-50,0
1757168836536.0134,-45,0
1757168836543.7058,-43,0
1757168836551.3982,-43,0
1757168836559.0906,-43,0
1757168836566.783,-41,0
1757168836574.4753,-45,0
1757168836582.1677,-43,0
1757168836589.86,-43,0
1757168836597.5525,-45,0
1757168836605.2449,-45,0
1757168836612.9373,-45,0
1757168836620.6296,-45,0
1757168836628.322,-43,0
1757168836636.0144,-43,0
1757168836643.7068,-41,0
1757168836651.3992,-43,0
1757168836659.0916,-43,0
1757168836666.784,-39,0
1757168836674.4763,-36,0
1757168836682.1687,-39,0
1757168836689.861,-39,0
1757168836697.5535,-36,0
1757168836705.2458,-36,0
1757168836712.9382,-39,0
1757168836720.6306,-43,0
1757168836728.323,-41,0
1757168836736.0154,-34,0
1757168836743.7078,-34,0
1757168836751.4001,-34,0
1757168836759.0925,-27,0
1757168836766.785,-22,0
1757168836774.4773,-25,0
1757168836782.1697,-25,0
1757168836789.862,-25,0
1757168836797.5544,-22,0
1757168836805.2468,-20,0
1757168836812.9392,-18,0
1757168836820.6316,-18,0
1757168836828.324,-20,0
1757168836836.0164,-22,0
1757168836843.7087,-18,0
1757168836851.4011,-16,0
1757168836859.0935,-16,0
1757168836866.786,-16,0
1757168836874.4783,-16,0
1757168836882.1707,-16,0
1757168836889.863,-13,0
1757168836897.5554,-11,0
1757168836905.2478,-11,0
1757168836912.9402,-13,0
1757168836943.496,-6,0
1757168836951.1885,4,0
1757168836958.8809,16,0
1757168836966.5732,25,0
1757168836974.2656,29,0
1757168836981.958,25,0
1757168836989.6504,-2,0
1757168836997.3428,-29,0
1757168837005.0352,-34,0
1757168837012.7275,-18,0
1757168837020.42,-13,0
1757168837028.1123,-18,0
1757168837035.8047,-39,0
1757168837043.497,-96,0
1757168837051.1895,-103,0
1757168837058.8818,183,0
1757168837066.5742,793,0
1757168837074.2666,1409,0
1757168837081.959,1570,0
1757168837089.6514,834,0
1757168837097.3438,-218,0
1757168837105.0361,-374,0
1757168837112.7285,-22,0
1757168837120.421,-94,0
1757168837128.1133,-236,0
1757168837135.8057,-137,0
1757168837143.498,-103,0
1757168837151.1904,-140,0
1757168837158.8828,-110,0
1757168837166.5752,-80,0
1757168837174.2676,-89,0
1757168837181.96,-78,0
1757168837189.6523,-50,0
1757168837197.3447,-39,0
1757168837205.037,-27,0
1757168837212.7295,-11,0
1757168837220.4219,4,0
1757168837228.1143,20,0
1757168837235.8066,45,0
1757168837243.499,66,0
1757168837251.1914,80,0
1757168837258.8838,98,0
1757168837266.5762,121,0
1757168837274.2686,144,0
1757168837281.961,158,0
1757168837289.6533,158,0
1757168837297.3457,147,0
1757168837305.038,126,0
1757168837312.7305,96,0
1757168837320.4229,64,0
1757168837328.1152,29,0
1757168837335.8076,-11,0
1757168837343.5,-50,0
1757168837351.1924,-82,0
1757168837358.8848,-108,0
1757168837366.5771,-119,0
1757168837374.2695,-121,0
1757168837381.962,-121,0
1757168837389.6543,-124,0
1757168837397.3467,-124,0
1757168837405.039,-121,0
1757168837412.7314,-114,0
1757168837420.4238,-105,0
1757168837428.1162,-101,0
1757168837435.8086,-98,0
1757168837443.501,-98,0
1757168837451.1934,-96,0
1757168837458.8857,-87,0
1757168837466.5781,-80,0
1757168837474.2705,-75,0
1757168837481.963,-73,0
1757168837489.6553,-73,0
1757168837497.3477,-71,0
1757168837483.8992,-64,0
1757168837491.5916,-57,0
1757168837499.284,-55,0
1757168837506.9763,-57,0
1757168837514.6687,-59,0
1757168837522.361,-62,0
1757168837530.0535,-57,0
1757168837537.7458,-52,0
1757168837545.4382,-55,0
1757168837553.1306,-64,0
1757168837560.823,-78,0
1757168837568.5154,-80,0
1757168837576.2078,-64,0
1757168837583.9001,-59,0
1757168837591.5925,-62,0
1757168837599.285,-62,0
1757168837606.9773,-59,0
1757168837614.6697,-59,0
1757168837622.362,-55,0
1757168837630.0544,-50,0
1757168837637.7468,-52,0
1757168837645.4392,-52,0
1757168837653.1316,-52,0
1757168837660.824,-52,0
1757168837668.5164,-48,0
1757168837676.2087,-45,0
1757168837683.9011,-43,0
1757168837691.5935,-45,0
1757168837699.286,-48,0
1757168837706.9783,-48,0
1757168837714.6707,-43,0
1757168837722.363,-41,0
1757168837730.0554,-43,0
1757168837737.7478,-50,0
1757168837745.4402,-52,0
1757168837753.1326,-45,0
1757168837760.825,-39,0
1757168837768.5173,-36,0
1757168837776.2097,-36,0
1757168837783.902,-36,0
1757168837791.5945,-39,0
1757168837799.2869,-39,0
1757168837806.9792,-36,0
1757168837814.6716,-36,0
1757168837822.364,-34,0
1757168837830.0564,-32,0
1757168837837.7488,-29,0
1757168837845.4412,-29,0
1757168837853.1335,-32,0
1757168837860.826,-29,0
1757168837868.5183,-29,0
1757168837876.2107,-34,0
1757168837883.903,-36,0
1757168837891.5955,-34,0
1757168837899.2878,-29,0
1757168837906.9802,-25,0
1757168837914.6726,-22,0
1757168837922.365,-18,0
1757168837930.0574,-2,0
1757168837937.7498,4,0
1757168837945.4421,6,0
1757168837953.1345,13,0
1757168837960.827,4,0
1757168837968.5193,-20,0
1757168837976.2117,-39,0
1757168837983.904,-34,0
1757168837991.5964,-25,0
1757168837999.2888,-22,0
1757168838006.9812,-32,0
1757168838014.6736,-62,0
1757168838022.366,-119,0
1757168838030.0583,-75,0
1757168838037.7507,298,0
1757168838027.1294,944,0
1757168838034.8218,1485,0
1757168838042.5142,1416,0
1757168838050.2065,482,0
1757168838057.899,-402,0
1757168838065.5913,-310,0
1757168838073.2837,-20,0
1757168838080.976,-183,0
1757168838088.6685,-262,0
1757168838096.3608,-140,0
1757168838104.0532,-131,0
1757168838111.7456,-156,0
1757168838119.438,-117,0
1757168838127.1304,-105,0
1757168838134.8228,-110,0
1757168838142.5151,-82,0
1757168838150.2075,-62,0
1757168838157.9,-50,0
1757168838165.5923,-36,0
1757168838173.2847,-22,0
1757168838180.977,-6,0
1757168838188.6694,16,0
1757168838196.3618,36,0
1757168838204.0542,57,0
1757168838211.7466,82,0
1757168838219.439,98,0
1757168838227.1313,110,0
1757168838234.8237,128,0
1757168838242.516,144,0
1757168838250.2085,144,0
1757168838257.901,128,0
1757168838265.5933,103,0
1757168838273.2856,75,0
1757168838280.978,45,0
1757168838288.6704,4,0
1757168838296.3628,-39,0
1757168838304.0552,-80,0
1757168838311.7476,-112,0
1757168838319.44,-135,0
1757168838327.1323,-147,0
1757168838334.8247,-154,0
1757168838342.517,-156,0
1757168838350.2095,-156,0
1757168838357.9019,-151,0
1757168838365.5942,-144,0
1757168838373.2866,-142,0
1757168838380.979,-137,0
1757168838388.6714,-131,0
1757168838396.3638,-126,0
1757168838404.0562,-121,0
1757168838411.7485,-114,0
1757168838419.441,-114,0
1757168838427.1333,-110,0
1757168838434.8257,-96,0
1757168838442.518,-98,0
1757168838450.2104,-98,0
1757168838457.9028,-89,0
1757168838465.5952,-82,0
1757168838473.2876,-87,0
1757168838480.98,-89,0
1757168838488.6724,-85,0
1757168838496.3647,-82,0
1757168838504.0571,-82,0
1757168838511.7495,-85,0
1757168838519.442,-89,0
1757168838527.1343,-91,0
1757168838534.8267,-91,0
1757168838542.519,-91,0
1757168838550.2114,-91,0
1757168838557.9038,-89,0
1757168838565.5962,-89,0
1757168838573.2886,-91,0
1757168838580.981,-96,0
1757168838654.999,-91,0
1757168838662.6914,-82,0
1757168838670.3838,-85,0
1757168838678.0762,-94,0
1757168838685.7686,-105,0
1757168838693.461,-112,0
1757168838701.1533,-101,0
1757168838708.8457,-80,0
1757168838716.538,-82,0
1757168838724.2305,-91,0
1757168838731.9229,-89,0
1757168838739.6152,-87,0
1757168838747.3076,-85,0
1757168838755.0,-75,0
1757168838762.6924,-75,0
1757168838770.3848,-82,0
1757168838778.0771,-82,0
1757168838785.7695,-82,0
1757168838793.462,-91,0
1757168838801.1543,-98,0
1757168838808.8467,-85,0
1757168838816.539,-75,0
1757168838824.2314,-80,0
1757168838831.9238,-80,0
1757168838839.6162,-75,0
1757168838847.3086,-75,0
1757168838855.001,-75,0
1757168838862.6934,-75,0
1757168838870.3857,-75,0
1757168838878.0781,-71,0
1757168838885.7705,-59,0
1757168838893.463,-43,0
1757168838901.1553,-39,0
1757168838908.8477,-34,0
1757168838916.54,-34,0
1757168838924.2324,-50,0
1757168838931.9248,-71,0
1757168838939.6172,-75,0
1757168838947.3096,-75,0
1757168838955.002,-80,0
1757168838962.6943,-80,0
1757168838970.3867,-80,0
1757168838978.079,-117,0
1757168838985.7715,-151,0
1757168838993.4639,22,0
1757168839001.1562,565,0
1757168839008.8486,1232,0
1757168839016.541,1524,0
1757168839024.2334,981,0
1757168839031.9258,-121,0
1757168839039.6182,-570,0
1757168839047.3105,-211,0
1757168839055.003,-108,0
1757168839062.6953,-273,0
1757168839070.3877,-218,0
1757168839078.08,-147,0
1757168839085.7725,-193,0
1757168839093.4648,-188,0
1757168839101.1572,-147,0
1757168839108.8496,-137,0
1757168839116.542,-131,0
1757168839124.2344,-110,0
1757168839131.9268,-101,0
1757168839139.6191,-91,0
1757168839147.3115,-68,0
1757168839155.004,-48,0
1757168839162.6963,-27,0
1757168839170.3887,-6,0
1757168839178.081,13,0
1757168839185.7734,34,0
1757168839193.4658,62,0
1757168839201.1582,89,0
1757168839208.8506,112,0
1757168839194.6729,124,0
1757168839202.3652,124,0
1757168839210.0576,112,0
1757168839217.75,91,0
1757168839225.4424,68,0
1757168839233.1348,36,0
1757168839240.8271,-13,0
1757168839248.5195,-71,0
1757168839256.212,-121,0
1757168839263.9043,-156,0
1757168839271.5967,-183,0
1757168839279.289,-209,0
1757168839286.9814,-213,0
1757168839294.6738,-223,0
1757168839302.3662,-234,0
1757168839310.0586,-213,0
1757168839317.751,-188,0
1757168839325.4434,-186,0
1757168839333.1357,-186,0
1757168839340.8281,-177,0
1757168839348.5205,-172,0
1757168839356.213,-160,0
1757168839363.9053,-151,0
1757168839371.5977,-147,0
1757168839379.29,-142,0
1757168839386.9824,-135,0
1757168839394.6748,-128,0
1757168839402.3672,-117,0
1757168839410.0596,-110,0
1757168839417.752,-105,0
1757168839425.4443,-103,0
1757168839433.1367,-103,0
1757168839440.829,-103,0
1757168839448.5215,-98,0
1757168839456.2139,-96,0
1757168839463.9062,-96,0
1757168839471.5986,-98,0
1757168839479.291,-103,0
1757168839486.9834,-103,0
1757168839494.6758,-98,0
1757168839502.3682,-98,0
1757168839510.0605,-98,0
1757168839517.753,-98,0
1757168839525.4453,-101,0
1757168839533.1377,-101,0
1757168839540.83,-94,0
1757168839548.5225,-87,0
1757168839556.2148,-87,0
1757168839563.9072,-91,0
1757168839571.5996,-94,0
1757168839579.292,-89,0
1757168839586.9844,-85,0
1757168839594.6768,-80,0
1757168839602.3691,-80,0
1757168839610.0615,-80,0
1757168839617.754,-78,0
1757168839625.4463,-75,0
1757168839633.1387,-73,0
1757168839640.831,-68,0
1757168839648.5234,-66,0
1757168839656.2158,-68,0
1757168839663.9082,-73,0
1757168839671.6006,-71,0
1757168839679.293,-66,0
1757168839686.9854,-62,0
1757168839694.6777,-64,0
1757168839702.37,-66,0
1757168839710.0625,-64,0
1757168839717.755,-59,0
1757168839725.4473,-57,0
1757168839733.1396,-55,0
1757168839740.832,-52,0
1757168839748.5244,-55,0
1757168839735.6848,-57,0
1757168839743.3772,-52,0
1757168839751.0696,-52,0
1757168839758.762,-55,0
1757168839766.4543,-41,0
1757168839774.1467,-22,0
1757168839781.839,-13,0
1757168839789.5315,-9,0
1757168839797.2239,-13,0
1757168839804.9163,-25,0
1757168839812.6086,-43,0
1757168839820.301,-62,0
1757168839827.9934,-57,0
1757168839835.6858,-41,0
1757168839843.3782,-41,0
1757168839851.0706,-59,0
1757168839858.763,-117,0
1757168839866.4553,-124,0
1757168839874.1477,165,0
1757168839881.84,779,0
1757168839889.5325,1395,0
1757168839897.2249,1551,0
1757168839904.9172,823,0
1757168839912.6096,-225,0
1757168839920.302,-400,0
1757168839927.9944,-52,0
1757168839935.6868,-105,0
1757168839943.3792,-245,0
1757168839951.0715,-156,0
1757168839958.764,-121,0
1757168839966.4563,-160,0
1757168839974.1487,-128,0
1757168839981.841,-96,0
1757168839989.5334,-101,0
1757168839997.2258,-89,0
1757168840004.9182,-66,0
1757168840012.6106,-55,0
1757168840020.303,-43,0
1757168840027.9954,-22,0
1757168840035.6877,-2,0
1757168840043.3801,13,0
1757168840051.0725,34,0
1757168840058.765,59,0
1757168840066.4573,80,0
1757168840074.1497,103,0
1757168840081.842,126,0
1757168840089.5344,144,0
1757168840097.2268,154,0
1757168840104.9192,154,0
1757168840112.6116,144,0
1757168840120.304,124,0
1757168840127.9963,96,0
1757168840135.6887,64,0
1757168840143.381,25,0
1757168840151.0735,-18,0
1757168840158.7659,-59,0
1757168840166.4583,-89,0
1757168840174.1506,-110,0
1757168840181.843,-126,0
1757168840189.5354,-133,0
1757168840197.2278,-133,0
1757168840204.9202,-131,0
1757168840212.6125,-128,0
1757168840220.305,-124,0
1757168840227.9973,-119,0
1757168840235.6897,-112,0
1757168840243.382,-105,0
1757168840251.0745,-108,0
1757168840258.7668,-112,0
1757168840266.4592,-112,0
1757168840274.1516,-98,0
1757168840281.844,-85,0
1757168840289.5364,-82,0
1757168840274.4443,-80,0
1757168840282.1367,-73,0
1757168840289.829,-66,0
1757168840297.5215,-62,0
1757168840305.2139,-57,0
1757168840312.9062,-55,0
1757168840320.5986,-55,0
1757168840328.291,-55,0
1757168840335.9834,-64,0
1757168840343.6758,-66,0
1757168840351.3682,-50,0
1757168840359.0605,-48,0
1757168840366.753,-55,0
1757168840374.4453,-50,0
1757168840382.1377,-50,0
1757168840389.83,-50,0
1757168840397.5225,-45,0
1757168840405.2148,-45,0
1757168840412.9072,-48,0
1757168840420.5996,-43,0
1757168840428.292,-43,0
1757168840435.9844,-43,0
1757168840443.6768,-39,0
1757168840451.3691,-36,0
1757168840459.0615,-39,0
1757168840466.754,-39,0
1757168840474.4463,-34,0
1757168840482.1387,-32,0
1757168840489.831,-32,0
1757168840497.5234,-29,0
1757168840505.2158,-32,0
1757168840512.9082,-32,0
1757168840520.6006,-32,0
1757168840528.293,-27,0
1757168840535.9854,-25,0
1757168840543.6777,-25,0
1757168840551.37,-25,0
1757168840559.0625,-25,0
1757168840566.755,-22,0
1757168840574.4473,-22,0
1757168840582.1396,-20,0
1757168840589.832,-18,0
1757168840597.5244,-22,0
1757168840605.2168,-22,0
1757168840612.9092,-18,0
1757168840620.6016,-16,0
1757168840628.294,-13,0
1757168840635.9863,-16,0
1757168840643.6787,-18,0
1757168840651.371,-16,0
1757168840659.0635,-13,0
1757168840666.7559,-11,0
1757168840674.4482,-13,0
1757168840682.1406,-13,0
1757168840689.833,-13,0
1757168840697.5254,-13,0
1757168840705.2178,-9,0
1757168840712.9102,0,0
1757168840720.6025,13,0
1757168840728.295,22,0
1757168840735.9873,27,0
1757168840743.6797,25,0
1757168840751.372,11,0
1757168840759.0645,-2,0
1757168840766.7568,-9,0
1757168840774.4492,-16,0
1757168840782.1416,-20,0
1757168840789.834,-18,0
1757168840797.5264,-13,0
1757168840805.2188,-25,0
1757168840812.9111,-82,0
1757168840820.6035,-98,0
1757168840828.296,160,0
1757168840906.6519,751,0
1757168840914.3442,1365,0
1757168840922.0366,1544,0
1757168840929.729,862,0
1757168840937.4214,-177,0
1757168840945.1138,-402,0
1757168840952.8062,-68,0
1757168840960.4985,-89,0
1757168840968.191,-223,0
1757168840975.8833,-144,0
1757168840983.5757,-105,0
1757168840991.268,-147,0
1757168840998.9604,-119,0
1757168841006.6528,-82,0
1757168841014.3452,-85,0
1757168841022.0376,-73,0
1757168841029.73,-50,0
1757168841037.4224,-45,0
1757168841045.1147,-36,0
1757168841052.8071,-13,0
1757168841060.4995,6,0
1757168841068.192,25,0
1757168841075.8843,43,0
1757168841083.5767,59,0
1757168841091.269,80,0
1757168841098.9614,105,0
1757168841106.6538,128,0
1757168841114.3462,144,0
1757168841122.0386,154,0
1757168841129.731,154,0
1757168841137.4233,144,0
1757168841145.1157,126,0
1757168841152.808,98,0
1757168841160.5005,68,0
1757168841168.1929,27,0
1757168841175.8853,-20,0
1757168841183.5776,-59,0
1757168841191.27,-85,0
1757168841198.9624,-105,0
1757168841206.6548,-119,0
1757168841214.3472,-135,0
1757168841222.0396,-142,0
1757168841229.732,-133,0
1757168841237.4243,-126,0
1757168841245.1167,-128,0
1757168841252.809,-126,0
1757168841260.5015,-124,0
1757168841268.1938,-119,0
1757168841275.8862,-110,0
1757168841283.5786,-101,0
1757168841291.271,-98,0
1757168841298.9634,-96,0
1757168841306.6558,-94,0
1757168841314.3481,-98,0
1757168841322.0405,-96,0
1757168841329.733,-82,0
1757168841337.4253,-71,0
1757168841345.1177,-71,0
1757168841352.81,-71,0
1757168841360.5024,-66,0
1757168841368.1948,-64,0
1757168841375.8872,-62,0
1757168841383.5796,-55,0
1757168841391.272,-55,0
1757168841398.9644,-62,0
1757168841406.6567,-66,0
1757168841414.349,-59,0
1757168841422.0415,-59,0
1757168841429.734,-66,0
1757168841437.4263,-66,0
1757168841445.1187,-62,0
1757168841452.811,-62,0
1757168841460.5034,-59,0
1757168841488.9832,-57,0
1757168841496.6755,-55,0
1757168841504.368,-55,0
1757168841512.0603,-55,0
1757168841519.7527,-57,0
1757168841527.445,-57,0
1757168841535.1375,-55,0
1757168841542.8298,-50,0
1757168841550.5222,-48,0
1757168841558.2146,-48,0
1757168841565.907,-48,0
1757168841573.5994,-48,0
1757168841581.2917,-48,0
1757168841588.9841,-52,0
1757168841596.6765,-62,0
1757168841604.369,-59,0
1757168841612.0613,-48,0
1757168841619.7537,-43,0
1757168841627.446,-41,0
1757168841635.1384,-43,0
1757168841642.8308,-45,0
1757168841650.5232,-45,0
1757168841658.2156,-41,0
1757168841665.908,-36,0
1757168841673.6003,-36,0
1757168841681.2927,-39,0
1757168841688.985,-41,0
1757168841696.6775,-41,0
1757168841704.3699,-36,0
1757168841712.0623,-29,0
1757168841719.7546,-29,0
1757168841727.447,-34,0
1757168841735.1394,-36,0
1757168841742.8318,-32,0
1757168841750.5242,-29,0
1757168841758.2166,-32,0
1757168841765.909,-32,0
1757168841773.6013,-22,0
1757168841781.2937,-9,0
1757168841788.986,4,0
1757168841796.6785,9,0
1757168841804.3708,11,0
1757168841812.0632,4,0
1757168841819.7556,-16,0
1757168841827.448,-32,0
1757168841835.1404,-34,0
1757168841842.8328,-36,0
1757168841850.5251,-43,0
1757168841858.2175,-45,0
1757168841865.91,-55,0
1757168841873.6023,-103,0
1757168841881.2947,-87,0
1757168841888.987,232,0
1757168841896.6794,866,0
1757168841904.3718,1455,0
1757168841912.0642,1485,0
1757168841919.7566,623,0
1757168841927.449,-372,0
1757168841935.1414,-402,0
1757168841942.8337,-43,0
1757168841950.5261,-133,0
1757168841958.2185,-243,0
1757168841965.911,-140,0
1757168841973.6033,-119,0
1757168841981.2957,-151,0
1757168841988.988,-117,0
1757168841996.6804,-91,0
1757168842004.3728,-105,0
1757168842012.0652,-89,0
1757168842019.7576,-64,0
1757168842027.45,-57,0
1757168842035.1423,-43,0
1757168842042.8347,-20,0
1757168841984.921,0,0
1757168841992.6133,16,0
1757168842000.3057,32,0
1757168842007.998,55,0
1757168842015.6904,85,0
1757168842023.3828,103,0
1757168842031.0752,108,0
1757168842038.7676,124,0
1757168842046.46,147,0
1757168842054.1523,147,0
1757168842061.8447,135,0
1757168842069.537,117,0
1757168842077.2295,85,0
1757168842084.9219,45,0
1757168842092.6143,2,0
1757168842100.3066,-43,0
1757168842107.999,-89,0
1757168842115.6914,-137,0
1757168842123.3838,-172,0
1757168842131.0762,-172,0
1757168842138.7686,-167,0
1757168842146.461,-177,0
1757168842154.1533,-172,0
1757168842161.8457,-165,0
1757168842169.538,-160,0
1757168842177.2305,-156,0
1757168842184.9229,-147,0
1757168842192.6152,-147,0
1757168842200.3076,-140,0
1757168842208.0,-133,0
1757168842215.6924,-126,0
1757168842223.3848,-117,0
1757168842231.0771,-110,0
1757168842238.7695,-108,0
1757168842246.462,-105,0
1757168842254.1543,-101,0
1757168842261.8467,-94,0
1757168842269.539,-89,0
1757168842277.2314,-89,0
1757168842284.9238,-96,0
1757168842292.6162,-103,0
1757168842300.3086,-98,0
1757168842308.001,-89,0
1757168842315.6934,-87,0
1757168842323.3857,-89,0
1757168842331.0781,-89,0
1757168842338.7705,-89,0
1757168842346.463,-89,0
1757168842354.1553,-87,0
1757168842361.8477,-85,0
1757168842369.54,-85,0
1757168842377.2324,-87,0
1757168842384.9248,-87,0
1757168842392.6172,-85,0
1757168842400.3096,-80,0
1757168842408.002,-75,0
1757168842415.6943,-78,0
1757168842423.3867,-78,0
1757168842431.079,-75,0
1757168842438.7715,-75,0
1757168842446.4639,-73,0
1757168842454.1562,-68,0
1757168842461.8486,-66,0
1757168842469.541,-68,0
1757168842477.2334,-71,0
1757168842484.9258,-68,0
1757168842492.6182,-66,0
1757168842500.3105,-64,0
1757168842508.003,-62,0
1757168842515.6953,-62,0
1757168842523.3877,-64,0
1757168842531.08,-62,0
1757168842538.7725,-55,0
1757168842575.2014,-57,0
1757168842582.8938,-59,0
1757168842590.5862,-57,0
1757168842598.2786,-57,0
1757168842605.971,-57,0
1757168842613.6633,-50,0
1757168842621.3557,-45,0
1757168842629.048,-48,0
1757168842636.7405,-59,0
1757168842644.4329,-62,0
1757168842652.1252,-36,0
1757168842659.8176,-11,0
1757168842667.51,-6,0
1757168842675.2024,-6,0
1757168842682.8948,-13,0
1757168842690.5872,-32,0
1757168842698.2795,-43,0
1757168842705.972,-41,0
1757168842713.6643,-36,0
1757168842721.3567,-39,0
1757168842729.049,-41,0
1757168842736.7415,-66,0
1757168842744.4338,-124,0
1757168842752.1262,-82,0
1757168842759.8186,287,0
1757168842767.511,944,0
1757168842775.2034,1505,0
1757168842782.8958,1455,0
1757168842790.5881,517,0
1757168842798.2805,-402,0
1757168842805.973,-328,0
1757168842813.6653,-27,0
1757168842821.3577,-177,0
1757168842829.05,-245,0
1757168842836.7424,-124,0
1757168842844.4348,-124,0
1757168842852.1272,-154,0
1757168842859.8196,-114,0
1757168842867.512,-94,0
1757168842875.2043,-98,0
1757168842882.8967,-75,0
1757168842890.589,-52,0
1757168842898.2815,-43,0
1757168842905.9739,-29,0
1757168842913.6663,-13,0
1757168842921.3586,2,0
1757168842929.051,27,0
1757168842936.7434,48,0
1757168842944.4358,71,0
1757168842952.1282,94,0
1757168842959.8206,114,0
1757168842967.513,135,0
1757168842975.2053,156,0
1757168842982.8977,167,0
1757168842990.59,165,0
1757168842998.2825,149,0
1757168843005.9749,121,0
1757168843013.6672,91,0
1757168843021.3596,59,0
1757168843029.052,16,0
1757168843036.7444,-29,0
1757168843044.4368,-71,0
1757168843052.1292,-101,0
1757168843059.8215,-117,0
1757168843067.514,-126,0
1757168843075.2063,-133,0
1757168843082.8987,-135,0
1757168843090.591,-135,0
1757168843098.2834,-135,0
1757168843105.9758,-126,0
1757168843113.6682,-117,0
1757168843121.3606,-114,0
1757168843129.053,-110,0
1757168843109.112,-108,0
1757168843116.8044,-103,0
1757168843124.4968,-94,0
1757168843132.1892,-85,0
1757168843139.8816,-80,0
1757168843147.574,-78,0
1757168843155.2664,-78,0
1757168843162.9587,-75,0
1757168843170.6511,-66,0
1757168843178.3435,-62,0
1757168843186.036,-59,0
1757168843193.7283,-62,0
1757168843201.4207,-73,0
1757168843209.113,-73,0
1757168843216.8054,-57,0
1757168843224.4978,-52,0
1757168843232.1902,-57,0
1757168843239.8826,-57,0
1757168843247.575,-57,0
1757168843255.2673,-59,0
1757168843262.9597,-55,0
1757168843270.652,-50,0
1757168843278.3445,-50,0
1757168843286.0369,-50,0
1757168843293.7292,-55,0
1757168843301.4216,-62,0
1757168843309.114,-52,0
1757168843316.8064,-41,0
1757168843324.4988,-43,0
1757168843332.1912,-45,0
1757168843339.8835,-41,0
1757168843347.576,-41,0
1757168843355.2683,-39,0
1757168843362.9607,-34,0
1757168843370.653,-32,0
1757168843378.3455,-36,0
1757168843386.0378,-36,0
1757168843393.7302,-32,0
1757168843401.4226,-27,0
1757168843409.115,-27,0
1757168843416.8074,-27,0
1757168843424.4998,-27,0
1757168843432.1921,-27,0
1757168843439.8845,-27,0
1757168843447.577,-25,0
1757168843455.2693,-20,0
1757168843462.9617,-22,0
1757168843470.654,-25,0
1757168843478.3464,-22,0
1757168843486.0388,-22,0
1757168843493.7312,-20,0
1757168843501.4236,-18,0
1757168843509.116,-20,0
1757168843516.8083,-20,0
1757168843524.5007,-20,0
1757168843532.193,-18,0
1757168843539.8855,-18,0
1757168843547.578,-16,0
1757168843555.2703,-16,0
1757168843562.9626,-6,0
1757168843570.655,9,0
1757168843578.3474,16,0
1757168843586.0398,22,0
1757168843593.7322,25,0
1757168843601.4246,11,0
1757168843609.117,-9,0
1757168843616.8093,-20,0
1757168843624.5017,-22,0
1757168843632.194,-18,0
1757168843639.8865,-13,0
1757168843647.5789,-22,0
1757168843655.2712,-57,0
1757168843662.9636,-119,0
1757168843657.4111,-45,0
1757168843665.1035,370,0
1757168843672.796,1027,0
1757168843680.4883,1528,0
1757168843688.1807,1379,0
1757168843695.873,400,0
1757168843703.5654,-404,0
1757168843711.2578,-248,0
1757168843718.9502,-13,0
1757168843726.6426,-197,0
1757168843734.335,-239,0
1757168843742.0273,-119,0
1757168843749.7197,-131,0
1757168843757.412,-154,0
1757168843765.1045,-105,0
1757168843772.7969,-91,0
1757168843780.4893,-98,0
1757168843788.1816,-82,0
1757168843795.874,-71,0
1757168843803.5664,-55,0
1757168843811.2588,-32,0
1757168843818.9512,-16,0
1757168843826.6436,0,0
1757168843834.336,22,0
1757168843842.0283,45,0
1757168843849.7207,71,0
1757168843857.413,91,0
1757168843865.1055,110,0
1757168843872.7979,131,0
1757168843880.4902,144,0
1757168843888.1826,151,0
1757168843895.875,147,0
1757168843903.5674,133,0
1757168843911.2598,108,0
1757168843918.9521,82,0
1757168843926.6445,50,0
1757168843934.337,9,0
1757168843942.0293,-34,0
1757168843949.7217,-71,0
1757168843957.414,-101,0
1757168843965.1064,-114,0
1757168843972.7988,-124,0
1757168843980.4912,-133,0
1757168843988.1836,-135,0
1757168843995.876,-131,0
1757168844003.5684,-128,0
1757168844011.2607,-121,0
1757168844018.9531,-119,0
1757168844026.6455,-121,0
1757168844034.338,-114,0
1757168844042.0303,-105,0
1757168844049.7227,-103,0
1757168844057.415,-94,0
1757168844065.1074,-87,0
1757168844072.7998,-87,0
1757168844080.4922,-85,0
1757168844088.1846,-80,0
1757168844095.877,-75,0
1757168844103.5693,-73,0
1757168844111.2617,-73,0
1757168844118.954,-71,0
1757168844126.6465,-68,0
1757168844134.3389,-68,0
1757168844142.0312,-66,0
1757168844149.7236,-62,0
1757168844157.416,-62,0
1757168844165.1084,-68,0
1757168844172.8008,-68,0
1757168844180.4932,-68,0
1757168844188.1855,-71,0
1757168844195.878,-68,0
1757168844203.5703,-66,0
1757168844211.2627,-66,0
1757168844279.0337,-68,0
1757168844286.726,-68,0
1757168844294.4185,-68,0
1757168844302.1108,-64,0
1757168844309.8032,-64,0
1757168844317.4956,-68,0
1757168844325.188,-78,0
1757168844332.8804,-80,0
1757168844340.5728,-66,0
1757168844348.2651,-59,0
1757168844355.9575,-71,0
1757168844363.65,-75,0
1757168844371.3423,-59,0
1757168844379.0347,-50,0
1757168844386.727,-50,0
1757168844394.4194,-45,0
1757168844402.1118,-45,0
1757168844409.8042,-52,0
1757168844417.4966,-52,0
1757168844425.189,-43,0
1757168844432.8813,-39,0
1757168844440.5737,-41,0
1757168844448.266,-39,0
1757168844455.9585,-39,0
1757168844463.651,-43,0
1757168844471.3433,-39,0
1757168844479.0356,-27,0
1757168844486.728,-27,0
1757168844494.4204,-34,0
1757168844502.1128,-39,0
1757168844509.8052,-39,0
1757168844517.4976,-36,0
1757168844525.19,-34,0
1757168844532.8823,-29,0
1757168844540.5747,-27,0
1757168844548.267,-32,0
1757168844555.9595,-29,0
1757168844563.6519,-27,0
1757168844571.3442,-22,0
1757168844579.0366,-16,0
1757168844586.729,-4,0
1757168844594.4214,0,0
1757168844602.1138,0,0
1757168844609.8062,6,0
1757168844617.4985,4,0
1757168844625.191,-13,0
1757168844632.8833,-27,0
1757168844640.5757,-32,0
1757168844648.268,-29,0
1757168844655.9604,-27,0
1757168844663.6528,-27,0
1757168844671.3452,-55,0
1757168844679.0376,-110,0
1757168844686.73,-66,0
1757168844694.4224,308,0
1757168844702.1147,956,0
1757168844709.8071,1487,0
1757168844717.4995,1404,0
1757168844725.192,466,0
1757168844732.8843,-425,0
1757168844740.5767,-328,0
1757168844748.269,-18,0
1757168844755.9614,-156,0
1757168844763.6538,-225,0
1757168844771.3462,-121,0
1757168844779.0386,-128,0
1757168844786.731,-154,0
1757168844794.4233,-105,0
1757168844802.1157,-87,0
1757168844809.808,-94,0
1757168844817.5005,-80,0
1757168844825.1929,-64,0
1757168844832.8853,-48,0
1757168844775.69,-27,0
1757168844783.3823,-11,0
1757168844791.0747,0,0
1757168844798.767,11,0
1757168844806.4595,25,0
1757168844814.1519,55,0
1757168844821.8442,89,0
1757168844829.5366,114,0
1757168844837.229,131,0
1757168844844.9214,142,0
1757168844852.6138,147,0
1757168844860.3062,147,0
1757168844867.9985,137,0
1757168844875.691,117,0
1757168844883.3833,87,0
1757168844891.0757,41,0
1757168844898.768,-11,0
1757168844906.4604,-39,0
1757168844914.1528,-64,0
1757168844921.8452,-98,0
1757168844929.5376,-121,0
1757168844937.23,-133,0
1757168844944.9224,-140,0
1757168844952.6147,-142,0
1757168844960.3071,-137,0
1757168844967.9995,-133,0
1757168844975.692,-131,0
1757168844983.3843,-126,0
1757168844991.0767,-121,0
1757168844998.769,-110,0
1757168845006.4614,-103,0
1757168845014.1538,-98,0
1757168845021.8462,-94,0
1757168845029.5386,-87,0
1757168845037.231,-80,0
1757168845044.9233,-71,0
1757168845052.6157,-66,0
1757168845060.308,-66,0
1757168845068.0005,-64,0
1757168845075.6929,-62,0
1757168845083.3853,-57,0
1757168845091.0776,-52,0
1757168845098.77,-50,0
1757168845106.4624,-55,0
1757168845114.1548,-57,0
1757168845121.8472,-59,0
1757168845129.5396,-68,0
1757168845137.232,-66,0
1757168845144.9243,-57,0
1757168845152.6167,-55,0
1757168845160.309,-59,0
1757168845168.0015,-64,0
1757168845175.6938,-64,0
1757168845183.3862,-55,0
1757168845191.0786,-52,0
1757168845198.771,-57,0
1757168845206.4634,-57,0
1757168845214.1558,-52,0
1757168845221.8481,-52,0
1757168845229.5405,-52,0
1757168845237.233,-48,0
1757168845244.9253,-43,0
1757168845252.6177,-45,0
1757168845260.31,-45,0
1757168845268.0024,-45,0
1757168845275.6948,-45,0
1757168845283.3872,-45,0
1757168845291.0796,-43,0
1757168845298.772,-45,0
1757168845306.4644,-50,0
1757168845314.1567,-57,0
1757168845321.849,-45,0
1757168845329.5415,-34,0
1757168845405.4194,-41,0
1757168845413.1118,-43,0
1757168845420.8042,-39,0
1757168845428.4966,-36,0
1757168845436.189,-36,0
1757168845443.8813,-29,0
1757168845451.5737,-29,0
1757168845459.266,-32,0
1757168845466.9585,-18,0
1757168845474.651,0,0
1757168845482.3433,6,0
1757168845490.0356,6,0
1757168845497.728,-6,0
1757168845505.4204,-25,0
1757168845513.1128,-32,0
1757168845520.8052,-29,0
1757168845528.4976,-25,0
1757168845536.19,-20,0
1757168845543.8823,-29,0
1757168845551.5747,-71,0
1757168845559.267,-110,0
1757168845566.9595,36,0
1757168845574.6519,547,0
1757168845582.3442,1218,0
1757168845590.0366,1584,0
1757168845597.729,1135,0
1757168845605.4214,25,0
1757168845613.1138,-519,0
1757168845620.8062,-177,0
1757168845628.4985,-32,0
1757168845636.191,-211,0
1757168845643.8833,-172,0
1757168845651.5757,-91,0
1757168845659.268,-135,0
1757168845666.9604,-128,0
1757168845674.6528,-78,0
1757168845682.3452,-80,0
1757168845690.0376,-80,0
1757168845697.73,-50,0
1757168845705.4224,-39,0
1757168845713.1147,-29,0
1757168845720.8071,-9,0
1757168845728.4995,9,0
1757168845736.192,27,0
1757168845743.8843,50,0
1757168845751.5767,71,0
1757168845759.269,96,0
1757168845766.9614,119,0
1757168845774.6538,140,0
1757168845782.3462,163,0
1757168845790.0386,179,0
1757168845797.731,179,0
1757168845805.4233,167,0
1757168845813.1157,149,0
1757168845820.808,121,0
1757168845828.5005,87,0
1757168845836.1929,43,0
1757168845843.8853,-2,0
1757168845851.5776,-45,0
1757168845859.27,-87,0
1757168845866.9624,-114,0
1757168845874.6548,-133,0
1757168845882.3472,-151,0
1757168845890.0396,-156,0
1757168845897.732,-142,0
1757168845905.4243,-135,0
1757168845913.1167,-133,0
1757168845920.809,-124,0
1757168845928.5015,-117,0
1757168845936.1938,-112,0
1757168845943.8862,-108,0
1757168845951.5786,-103,0
1757168845959.271,-96,0
1757168845904.8003,-87,0
1757168845912.4927,-80,0
1757168845920.185,-80,0
1757168845927.8774,-73,0
1757168845935.5698,-66,0
1757168845943.2622,-64,0
1757168845950.9546,-57,0
1757168845958.647,-55,0
1757168845966.3394,-57,0
1757168845974.0317,-62,0
1757168845981.724,-71,0
1757168845989.4165,-71,0
1757168845997.109,-57,0
1757168846004.8013,-55,0
1757168846012.4937,-59,0
1757168846020.186,-64,0
1757168846027.8784,-73,0
1757168846035.5708,-68,0
1757168846043.2632,-55,0
1757168846050.9556,-52,0
1757168846058.648,-55,0
1757168846066.3403,-50,0
1757168846074.0327,-48,0
1757168846081.725,-48,0
1757168846089.4175,-41,0
1757168846097.1099,-39,0
1757168846104.8022,-41,0
1757168846112.4946,-39,0
1757168846120.187,-34,0
1757168846127.8794,-32,0
1757168846135.5718,-32,0
1757168846143.2642,-32,0
1757168846150.9565,-32,0
1757168846158.649,-32,0
1757168846166.3413,-29,0
1757168846174.0337,-25,0
1757168846181.726,-25,0
1757168846189.4185,-25,0
1757168846197.1108,-25,0
1757168846204.8032,-22,0
1757168846212.4956,-22,0
